# gbpCode colour map
#    type      = linear
#    hue       = 330 degrees
#    radius    = 001 degrees
#    chroma    = 050
#    luminance = 000 to 090
  0 0.1787 0.0000 0.1595
  1 0.1859 0.0000 0.1544
  2 0.1930 0.0000 0.1492
  3 0.1999 0.0000 0.1439
  4 0.2066 0.0000 0.1385
  5 0.2131 0.0000 0.1329
  6 0.2194 0.0000 0.1273
  7 0.2254 0.0000 0.1216
  8 0.2313 0.0000 0.1159
  9 0.2369 0.0000 0.1101
 10 0.2423 0.0000 0.1043
 11 0.2475 0.0000 0.0983
 12 0.2524 0.0000 0.0919
 13 0.2572 0.0000 0.0850
 14 0.2618 0.0000 0.0777
 15 0.2662 0.0000 0.0697
 16 0.2704 0.0000 0.0608
 17 0.2743 0.0000 0.0510
 18 0.2781 0.0000 0.0397
 19 0.2816 0.0000 0.0275
 20 0.2849 0.0000 0.0153
 21 0.2880 0.0000 0.0033
 22 0.2909 0.0000 0.0000
 23 0.2936 0.0000 0.0000
 24 0.2960 0.0000 0.0000
 25 0.2981 0.0000 0.0000
 26 0.3000 0.0000 0.0000
 27 0.3016 0.0000 0.0000
 28 0.3030 0.0000 0.0000
 29 0.3041 0.0000 0.0000
 30 0.3049 0.0000 0.0000
 31 0.3055 0.0000 0.0000
 32 0.3059 0.0000 0.0000
 33 0.3060 0.0000 0.0000
 34 0.3058 0.0000 0.0000
 35 0.3054 0.0000 0.0000
 36 0.3048 0.0000 0.0000
 37 0.3039 0.0000 0.0000
 38 0.3028 0.0120 0.0000
 39 0.3015 0.0262 0.0000
 40 0.2999 0.0410 0.0000
 41 0.2981 0.0547 0.0000
 42 0.2960 0.0669 0.0000
 43 0.2937 0.0779 0.0000
 44 0.2912 0.0882 0.0000
 45 0.2884 0.0978 0.0000
 46 0.2854 0.1069 0.0000
 47 0.2822 0.1156 0.0000
 48 0.2788 0.1240 0.0000
 49 0.2751 0.1321 0.0000
 50 0.2712 0.1399 0.0000
 51 0.2670 0.1475 0.0000
 52 0.2626 0.1549 0.0000
 53 0.2580 0.1621 0.0000
 54 0.2531 0.1691 0.0000
 55 0.2480 0.1759 0.0000
 56 0.2427 0.1826 0.0000
 57 0.2370 0.1892 0.0000
 58 0.2311 0.1957 0.0000
 59 0.2249 0.2020 0.0000
 60 0.2184 0.2082 0.0000
 61 0.2116 0.2143 0.0000
 62 0.2045 0.2203 0.0000
 63 0.1970 0.2262 0.0000
 64 0.1891 0.2321 0.0000
 65 0.1807 0.2378 0.0000
 66 0.1719 0.2434 0.0000
 67 0.1626 0.2490 0.0000
 68 0.1527 0.2545 0.0000
 69 0.1420 0.2599 0.0000
 70 0.1305 0.2652 0.0000
 71 0.1179 0.2705 0.0000
 72 0.1039 0.2757 0.0000
 73 0.0881 0.2808 0.0000
 74 0.0695 0.2859 0.0000
 75 0.0461 0.2909 0.0000
 76 0.0166 0.2958 0.0000
 77 0.0000 0.3007 0.0000
 78 0.0000 0.3055 0.0000
 79 0.0000 0.3103 0.0034
 80 0.0000 0.3150 0.0205
 81 0.0000 0.3196 0.0400
 82 0.0000 0.3242 0.0592
 83 0.0000 0.3288 0.0765
 84 0.0000 0.3333 0.0928
 85 0.0000 0.3378 0.1084
 86 0.0000 0.3422 0.1237
 87 0.0000 0.3466 0.1387
 88 0.0000 0.3509 0.1535
 89 0.0000 0.3552 0.1683
 90 0.0000 0.3595 0.1830
 91 0.0000 0.3637 0.1978
 92 0.0000 0.3678 0.2125
 93 0.0000 0.3719 0.2273
 94 0.0000 0.3760 0.2421
 95 0.0000 0.3800 0.2570
 96 0.0000 0.3840 0.2720
 97 0.0000 0.3879 0.2869
 98 0.0000 0.3918 0.3019
 99 0.0000 0.3957 0.3170
100 0.0000 0.3994 0.3320
101 0.0000 0.4032 0.3471
102 0.0000 0.4068 0.3622
103 0.0000 0.4105 0.3773
104 0.0000 0.4140 0.3923
105 0.0000 0.4175 0.4074
106 0.0000 0.4210 0.4224
107 0.0000 0.4243 0.4373
108 0.0000 0.4276 0.4521
109 0.0000 0.4309 0.4669
110 0.0000 0.4340 0.4815
111 0.0000 0.4371 0.4961
112 0.0000 0.4401 0.5104
113 0.0000 0.4431 0.5247
114 0.0000 0.4459 0.5388
115 0.0000 0.4487 0.5526
116 0.0000 0.4514 0.5663
117 0.0000 0.4540 0.5798
118 0.0000 0.4565 0.5930
119 0.0000 0.4588 0.6060
120 0.0000 0.4611 0.6188
121 0.0000 0.4633 0.6312
122 0.0000 0.4654 0.6434
123 0.0000 0.4674 0.6552
124 0.0000 0.4693 0.6668
125 0.0000 0.4710 0.6780
126 0.0000 0.4727 0.6889
127 0.0000 0.4742 0.6994
128 0.0000 0.4756 0.7095
129 0.0000 0.4769 0.7193
130 0.0000 0.4780 0.7287
131 0.0000 0.4791 0.7377
132 0.0000 0.4800 0.7463
133 0.0000 0.4808 0.7545
134 0.0000 0.4814 0.7622
135 0.0000 0.4820 0.7695
136 0.0000 0.4824 0.7764
137 0.0000 0.4826 0.7828
138 0.0000 0.4828 0.7888
139 0.0783 0.4828 0.7943
140 0.1437 0.4827 0.7994
141 0.1901 0.4825 0.8040
142 0.2285 0.4821 0.8082
143 0.2624 0.4816 0.8119
144 0.2932 0.4811 0.8151
145 0.3219 0.4804 0.8179
146 0.3489 0.4796 0.8202
147 0.3746 0.4787 0.8220
148 0.3992 0.4777 0.8234
149 0.4229 0.4766 0.8243
150 0.4458 0.4755 0.8248
151 0.4680 0.4742 0.8248
152 0.4895 0.4729 0.8244
153 0.5104 0.4716 0.8236
154 0.5308 0.4701 0.8223
155 0.5507 0.4687 0.8206
156 0.5701 0.4672 0.8184
157 0.5890 0.4657 0.8159
158 0.6075 0.4642 0.8130
159 0.6255 0.4627 0.8096
160 0.6431 0.4612 0.8059
161 0.6602 0.4597 0.8018
162 0.6769 0.4583 0.7974
163 0.6932 0.4570 0.7926
164 0.7091 0.4557 0.7875
165 0.7245 0.4545 0.7820
166 0.7396 0.4535 0.7763
167 0.7542 0.4525 0.7702
168 0.7683 0.4517 0.7639
169 0.7821 0.4510 0.7573
170 0.7954 0.4505 0.7504
171 0.8083 0.4502 0.7433
172 0.8207 0.4501 0.7359
173 0.8327 0.4502 0.7283
174 0.8443 0.4506 0.7206
175 0.8554 0.4511 0.7126
176 0.8661 0.4520 0.7045
177 0.8764 0.4530 0.6962
178 0.8862 0.4544 0.6878
179 0.8956 0.4561 0.6793
180 0.9045 0.4580 0.6706
181 0.9130 0.4602 0.6619
182 0.9210 0.4628 0.6530
183 0.9286 0.4656 0.6441
184 0.9358 0.4688 0.6352
185 0.9425 0.4722 0.6262
186 0.9487 0.4760 0.6172
187 0.9545 0.4800 0.6082
188 0.9599 0.4844 0.5992
189 0.9648 0.4890 0.5902
190 0.9693 0.4940 0.5812
191 0.9734 0.4992 0.5723
192 0.9770 0.5047 0.5635
193 0.9802 0.5104 0.5547
194 0.9830 0.5164 0.5460
195 0.9853 0.5226 0.5375
196 0.9872 0.5291 0.5290
197 0.9887 0.5358 0.5207
198 0.9898 0.5427 0.5125
199 0.9905 0.5497 0.5045
200 0.9908 0.5570 0.4967
201 0.9907 0.5644 0.4890
202 0.9902 0.5720 0.4816
203 0.9893 0.5797 0.4743
204 0.9880 0.5876 0.4673
205 0.9864 0.5956 0.4606
206 0.9844 0.6036 0.4541
207 0.9820 0.6118 0.4479
208 0.9793 0.6201 0.4420
209 0.9762 0.6284 0.4364
210 0.9728 0.6368 0.4311
211 0.9691 0.6453 0.4262
212 0.9650 0.6538 0.4216
213 0.9606 0.6623 0.4174
214 0.9559 0.6709 0.4136
215 0.9509 0.6795 0.4103
216 0.9456 0.6881 0.4073
217 0.9399 0.6967 0.4049
218 0.9340 0.7053 0.4028
219 0.9279 0.7139 0.4013
220 0.9214 0.7225 0.4003
221 0.9147 0.7310 0.3998
222 0.9077 0.7396 0.3998
223 0.9005 0.7480 0.4003
224 0.8930 0.7565 0.4014
225 0.8853 0.7649 0.4031
226 0.8774 0.7732 0.4053
227 0.8692 0.7816 0.4081
228 0.8608 0.7898 0.4115
229 0.8522 0.7980 0.4155
230 0.8434 0.8061 0.4200
231 0.8345 0.8142 0.4251
232 0.8253 0.8222 0.4308
233 0.8159 0.8301 0.4371
234 0.8063 0.8379 0.4440
235 0.7966 0.8457 0.4514
236 0.7867 0.8534 0.4593
237 0.7766 0.8610 0.4678
238 0.7664 0.8685 0.4768
239 0.7560 0.8759 0.4864
240 0.7454 0.8833 0.4964
241 0.7347 0.8906 0.5069
242 0.7239 0.8977 0.5179
243 0.7129 0.9048 0.5294
244 0.7018 0.9118 0.5413
245 0.6906 0.9187 0.5537
246 0.6792 0.9256 0.5665
247 0.6678 0.9323 0.5797
248 0.6562 0.9389 0.5932
249 0.6445 0.9454 0.6072
250 0.6327 0.9519 0.6215
251 0.6208 0.9582 0.6362
252 0.6088 0.9645 0.6512
253 0.5967 0.9706 0.6665
254 0.5846 0.9767 0.6821
255 0.5724 0.9826 0.6980
