# gbpCode colour map
#    type      = linear
#    hue       = 300 degrees
#    radius    = 000 degrees
#    chroma    = 050
#    luminance = 000 to 083
  0 0.0178 0.0000 0.2530
  1 0.0314 0.0000 0.2534
  2 0.0449 0.0000 0.2537
  3 0.0565 0.0000 0.2540
  4 0.0668 0.0000 0.2541
  5 0.0761 0.0000 0.2542
  6 0.0851 0.0000 0.2543
  7 0.0938 0.0000 0.2542
  8 0.1024 0.0000 0.2541
  9 0.1108 0.0000 0.2539
 10 0.1190 0.0000 0.2537
 11 0.1271 0.0000 0.2534
 12 0.1351 0.0000 0.2530
 13 0.1430 0.0000 0.2525
 14 0.1508 0.0000 0.2520
 15 0.1585 0.0000 0.2514
 16 0.1661 0.0000 0.2508
 17 0.1736 0.0000 0.2501
 18 0.1810 0.0000 0.2494
 19 0.1884 0.0000 0.2486
 20 0.1957 0.0000 0.2477
 21 0.2029 0.0000 0.2468
 22 0.2101 0.0000 0.2458
 23 0.2172 0.0000 0.2448
 24 0.2242 0.0000 0.2437
 25 0.2311 0.0000 0.2426
 26 0.2380 0.0000 0.2414
 27 0.2447 0.0000 0.2402
 28 0.2514 0.0000 0.2389
 29 0.2579 0.0000 0.2376
 30 0.2644 0.0000 0.2362
 31 0.2707 0.0000 0.2348
 32 0.2770 0.0000 0.2333
 33 0.2832 0.0000 0.2318
 34 0.2893 0.0000 0.2302
 35 0.2953 0.0000 0.2286
 36 0.3012 0.0000 0.2270
 37 0.3071 0.0000 0.2253
 38 0.3129 0.0000 0.2236
 39 0.3185 0.0000 0.2219
 40 0.3242 0.0000 0.2201
 41 0.3297 0.0000 0.2183
 42 0.3351 0.0000 0.2164
 43 0.3405 0.0000 0.2145
 44 0.3458 0.0000 0.2126
 45 0.3510 0.0000 0.2107
 46 0.3561 0.0000 0.2087
 47 0.3612 0.0000 0.2067
 48 0.3661 0.0000 0.2047
 49 0.3710 0.0000 0.2027
 50 0.3758 0.0000 0.2006
 51 0.3806 0.0000 0.1985
 52 0.3852 0.0000 0.1964
 53 0.3898 0.0000 0.1943
 54 0.3943 0.0000 0.1922
 55 0.3987 0.0000 0.1900
 56 0.4031 0.0000 0.1878
 57 0.4074 0.0000 0.1856
 58 0.4115 0.0000 0.1834
 59 0.4157 0.0000 0.1812
 60 0.4197 0.0000 0.1790
 61 0.4236 0.0000 0.1767
 62 0.4275 0.0000 0.1745
 63 0.4313 0.0000 0.1722
 64 0.4350 0.0000 0.1699
 65 0.4387 0.0000 0.1676
 66 0.4422 0.0000 0.1653
 67 0.4457 0.0000 0.1630
 68 0.4491 0.0000 0.1607
 69 0.4524 0.0000 0.1583
 70 0.4557 0.0000 0.1560
 71 0.4588 0.0000 0.1536
 72 0.4619 0.0000 0.1513
 73 0.4649 0.0000 0.1489
 74 0.4678 0.0000 0.1465
 75 0.4707 0.0000 0.1441
 76 0.4735 0.0083 0.1418
 77 0.4761 0.0187 0.1394
 78 0.4788 0.0295 0.1369
 79 0.4813 0.0409 0.1345
 80 0.4838 0.0517 0.1321
 81 0.4861 0.0615 0.1297
 82 0.4884 0.0706 0.1272
 83 0.4907 0.0793 0.1248
 84 0.4928 0.0875 0.1223
 85 0.4949 0.0954 0.1199
 86 0.4969 0.1030 0.1174
 87 0.4988 0.1104 0.1149
 88 0.5006 0.1176 0.1124
 89 0.5024 0.1247 0.1099
 90 0.5041 0.1316 0.1074
 91 0.5057 0.1384 0.1049
 92 0.5072 0.1450 0.1023
 93 0.5087 0.1516 0.0998
 94 0.5101 0.1581 0.0972
 95 0.5114 0.1645 0.0946
 96 0.5126 0.1709 0.0920
 97 0.5138 0.1771 0.0894
 98 0.5148 0.1833 0.0867
 99 0.5158 0.1895 0.0841
100 0.5168 0.1956 0.0814
101 0.5176 0.2017 0.0787
102 0.5184 0.2077 0.0760
103 0.5192 0.2137 0.0733
104 0.5198 0.2196 0.0706
105 0.5204 0.2255 0.0678
106 0.5209 0.2314 0.0651
107 0.5213 0.2373 0.0623
108 0.5217 0.2431 0.0595
109 0.5220 0.2488 0.0567
110 0.5222 0.2546 0.0538
111 0.5223 0.2603 0.0510
112 0.5224 0.2660 0.0482
113 0.5224 0.2717 0.0453
114 0.5224 0.2774 0.0425
115 0.5222 0.2830 0.0396
116 0.5220 0.2886 0.0369
117 0.5218 0.2942 0.0342
118 0.5214 0.2998 0.0317
119 0.5211 0.3054 0.0294
120 0.5206 0.3109 0.0272
121 0.5201 0.3164 0.0252
122 0.5195 0.3219 0.0234
123 0.5188 0.3274 0.0217
124 0.5181 0.3329 0.0202
125 0.5173 0.3383 0.0190
126 0.5164 0.3437 0.0179
127 0.5155 0.3491 0.0170
128 0.5146 0.3545 0.0164
129 0.5135 0.3599 0.0160
130 0.5124 0.3653 0.0159
131 0.5112 0.3706 0.0160
132 0.5100 0.3759 0.0164
133 0.5087 0.3813 0.0171
134 0.5074 0.3865 0.0181
135 0.5059 0.3918 0.0194
136 0.5045 0.3971 0.0210
137 0.5029 0.4023 0.0230
138 0.5013 0.4076 0.0253
139 0.4997 0.4128 0.0280
140 0.4980 0.4180 0.0311
141 0.4962 0.4232 0.0347
142 0.4943 0.4284 0.0386
143 0.4924 0.4335 0.0430
144 0.4905 0.4387 0.0475
145 0.4885 0.4438 0.0522
146 0.4864 0.4489 0.0570
147 0.4843 0.4540 0.0619
148 0.4821 0.4591 0.0670
149 0.4798 0.4641 0.0722
150 0.4775 0.4692 0.0775
151 0.4751 0.4742 0.0829
152 0.4727 0.4793 0.0884
153 0.4702 0.4843 0.0940
154 0.4677 0.4893 0.0997
155 0.4651 0.4942 0.1055
156 0.4624 0.4992 0.1114
157 0.4597 0.5041 0.1174
158 0.4569 0.5091 0.1234
159 0.4540 0.5140 0.1295
160 0.4511 0.5189 0.1358
161 0.4481 0.5238 0.1421
162 0.4451 0.5287 0.1484
163 0.4420 0.5335 0.1549
164 0.4388 0.5384 0.1614
165 0.4356 0.5432 0.1680
166 0.4323 0.5480 0.1747
167 0.4290 0.5528 0.1815
168 0.4255 0.5576 0.1884
169 0.4221 0.5624 0.1953
170 0.4185 0.5671 0.2023
171 0.4149 0.5719 0.2094
172 0.4112 0.5766 0.2166
173 0.4074 0.5813 0.2238
174 0.4036 0.5860 0.2311
175 0.3997 0.5907 0.2385
176 0.3957 0.5954 0.2460
177 0.3916 0.6000 0.2536
178 0.3875 0.6047 0.2612
179 0.3833 0.6093 0.2689
180 0.3790 0.6139 0.2767
181 0.3746 0.6185 0.2845
182 0.3701 0.6231 0.2925
183 0.3656 0.6276 0.3005
184 0.3609 0.6322 0.3086
185 0.3562 0.6367 0.3167
186 0.3513 0.6412 0.3249
187 0.3464 0.6457 0.3332
188 0.3414 0.6502 0.3416
189 0.3362 0.6547 0.3500
190 0.3310 0.6591 0.3586
191 0.3256 0.6636 0.3671
192 0.3201 0.6680 0.3758
193 0.3146 0.6724 0.3845
194 0.3088 0.6768 0.3933
195 0.3030 0.6812 0.4021
196 0.2970 0.6855 0.4110
197 0.2909 0.6899 0.4200
198 0.2846 0.6942 0.4291
199 0.2781 0.6985 0.4382
200 0.2715 0.7028 0.4473
201 0.2647 0.7071 0.4565
202 0.2577 0.7114 0.4658
203 0.2506 0.7156 0.4752
204 0.2432 0.7198 0.4845
205 0.2356 0.7240 0.4940
206 0.2277 0.7282 0.5035
207 0.2196 0.7324 0.5130
208 0.2111 0.7366 0.5226
209 0.2024 0.7407 0.5323
210 0.1932 0.7448 0.5420
211 0.1837 0.7489 0.5517
212 0.1737 0.7530 0.5615
213 0.1632 0.7571 0.5713
214 0.1520 0.7611 0.5812
215 0.1401 0.7652 0.5911
216 0.1273 0.7692 0.6010
217 0.1133 0.7732 0.6110
218 0.0978 0.7772 0.6210
219 0.0799 0.7811 0.6310
220 0.0585 0.7850 0.6411
221 0.0304 0.7890 0.6512
222 0.0002 0.7929 0.6613
223 0.0000 0.7967 0.6714
224 0.0000 0.8006 0.6816
225 0.0000 0.8044 0.6918
226 0.0000 0.8082 0.7020
227 0.0000 0.8120 0.7122
228 0.0000 0.8158 0.7224
229 0.0000 0.8195 0.7327
230 0.0000 0.8233 0.7429
231 0.0000 0.8270 0.7532
232 0.0000 0.8307 0.7634
233 0.0000 0.8343 0.7737
234 0.0000 0.8380 0.7840
235 0.0000 0.8416 0.7942
236 0.0000 0.8452 0.8045
237 0.0000 0.8487 0.8147
238 0.0000 0.8523 0.8250
239 0.0000 0.8558 0.8352
240 0.0000 0.8593 0.8454
241 0.0000 0.8628 0.8556
242 0.0000 0.8662 0.8658
243 0.0000 0.8696 0.8760
244 0.0000 0.8730 0.8861
245 0.0000 0.8764 0.8963
246 0.0000 0.8798 0.9064
247 0.0000 0.8831 0.9164
248 0.0000 0.8864 0.9265
249 0.0000 0.8896 0.9365
250 0.0000 0.8929 0.9464
251 0.0000 0.8961 0.9564
252 0.0000 0.8993 0.9662
253 0.0000 0.9024 0.9761
254 0.0000 0.9056 0.9859
255 0.0000 0.9087 0.9956
