# gbpCode colour map
#    type      = iso
#    hue       = 300 degrees
#    radius    = 000 degrees
#    chroma    = 050
#    luminance = 069 to 069
  0 0.7156 0.6078 0.9735
  1 0.7182 0.6070 0.9724
  2 0.7208 0.6061 0.9713
  3 0.7234 0.6053 0.9702
  4 0.7259 0.6045 0.9691
  5 0.7285 0.6036 0.9680
  6 0.7310 0.6028 0.9668
  7 0.7336 0.6020 0.9657
  8 0.7361 0.6011 0.9645
  9 0.7386 0.6003 0.9634
 10 0.7411 0.5995 0.9622
 11 0.7436 0.5986 0.9610
 12 0.7461 0.5978 0.9598
 13 0.7485 0.5970 0.9586
 14 0.7510 0.5961 0.9573
 15 0.7534 0.5953 0.9561
 16 0.7559 0.5945 0.9549
 17 0.7583 0.5937 0.9536
 18 0.7607 0.5928 0.9523
 19 0.7631 0.5920 0.9511
 20 0.7655 0.5912 0.9498
 21 0.7678 0.5903 0.9485
 22 0.7702 0.5895 0.9471
 23 0.7725 0.5887 0.9458
 24 0.7749 0.5879 0.9445
 25 0.7772 0.5871 0.9432
 26 0.7795 0.5862 0.9418
 27 0.7818 0.5854 0.9404
 28 0.7841 0.5846 0.9391
 29 0.7864 0.5838 0.9377
 30 0.7886 0.5830 0.9363
 31 0.7909 0.5821 0.9349
 32 0.7931 0.5813 0.9335
 33 0.7953 0.5805 0.9320
 34 0.7975 0.5797 0.9306
 35 0.7997 0.5789 0.9292
 36 0.8019 0.5781 0.9277
 37 0.8041 0.5773 0.9262
 38 0.8063 0.5765 0.9248
 39 0.8084 0.5757 0.9233
 40 0.8106 0.5749 0.9218
 41 0.8127 0.5741 0.9203
 42 0.8148 0.5733 0.9188
 43 0.8169 0.5725 0.9173
 44 0.8190 0.5717 0.9157
 45 0.8211 0.5709 0.9142
 46 0.8232 0.5701 0.9126
 47 0.8252 0.5693 0.9111
 48 0.8273 0.5685 0.9095
 49 0.8293 0.5677 0.9079
 50 0.8313 0.5670 0.9064
 51 0.8333 0.5662 0.9048
 52 0.8353 0.5654 0.9032
 53 0.8373 0.5646 0.9016
 54 0.8393 0.5639 0.8999
 55 0.8412 0.5631 0.8983
 56 0.8432 0.5623 0.8967
 57 0.8451 0.5616 0.8950
 58 0.8470 0.5608 0.8934
 59 0.8489 0.5601 0.8917
 60 0.8508 0.5593 0.8900
 61 0.8527 0.5586 0.8884
 62 0.8546 0.5578 0.8867
 63 0.8564 0.5571 0.8850
 64 0.8583 0.5563 0.8833
 65 0.8601 0.5556 0.8816
 66 0.8619 0.5549 0.8799
 67 0.8637 0.5541 0.8781
 68 0.8655 0.5534 0.8764
 69 0.8673 0.5527 0.8747
 70 0.8691 0.5520 0.8729
 71 0.8708 0.5513 0.8712
 72 0.8726 0.5505 0.8694
 73 0.8743 0.5498 0.8676
 74 0.8760 0.5491 0.8658
 75 0.8777 0.5484 0.8641
 76 0.8794 0.5477 0.8623
 77 0.8811 0.5471 0.8605
 78 0.8828 0.5464 0.8587
 79 0.8844 0.5457 0.8569
 80 0.8861 0.5450 0.8550
 81 0.8877 0.5443 0.8532
 82 0.8893 0.5437 0.8514
 83 0.8909 0.5430 0.8495
 84 0.8925 0.5423 0.8477
 85 0.8941 0.5417 0.8458
 86 0.8957 0.5410 0.8440
 87 0.8972 0.5404 0.8421
 88 0.8987 0.5397 0.8402
 89 0.9003 0.5391 0.8384
 90 0.9018 0.5385 0.8365
 91 0.9033 0.5378 0.8346
 92 0.9048 0.5372 0.8327
 93 0.9062 0.5366 0.8308
 94 0.9077 0.5360 0.8289
 95 0.9091 0.5354 0.8270
 96 0.9106 0.5348 0.8250
 97 0.9120 0.5342 0.8231
 98 0.9134 0.5336 0.8212
 99 0.9148 0.5330 0.8192
100 0.9162 0.5324 0.8173
101 0.9176 0.5318 0.8153
102 0.9189 0.5313 0.8134
103 0.9203 0.5307 0.8114
104 0.9216 0.5302 0.8095
105 0.9229 0.5296 0.8075
106 0.9242 0.5291 0.8055
107 0.9255 0.5285 0.8035
108 0.9268 0.5280 0.8016
109 0.9280 0.5275 0.7996
110 0.9293 0.5269 0.7976
111 0.9305 0.5264 0.7956
112 0.9318 0.5259 0.7936
113 0.9330 0.5254 0.7916
114 0.9342 0.5249 0.7896
115 0.9354 0.5244 0.7876
116 0.9365 0.5239 0.7855
117 0.9377 0.5235 0.7835
118 0.9388 0.5230 0.7815
119 0.9400 0.5225 0.7795
120 0.9411 0.5221 0.7774
121 0.9422 0.5216 0.7754
122 0.9433 0.5212 0.7733
123 0.9444 0.5207 0.7713
124 0.9454 0.5203 0.7692
125 0.9465 0.5199 0.7672
126 0.9475 0.5195 0.7651
127 0.9486 0.5191 0.7631
128 0.9496 0.5187 0.7610
129 0.9506 0.5183 0.7589
130 0.9516 0.5179 0.7569
131 0.9525 0.5175 0.7548
132 0.9535 0.5171 0.7527
133 0.9545 0.5167 0.7506
134 0.9554 0.5164 0.7485
135 0.9563 0.5160 0.7465
136 0.9572 0.5157 0.7444
137 0.9581 0.5154 0.7423
138 0.9590 0.5150 0.7402
139 0.9599 0.5147 0.7381
140 0.9607 0.5144 0.7360
141 0.9616 0.5141 0.7339
142 0.9624 0.5138 0.7318
143 0.9632 0.5135 0.7297
144 0.9640 0.5132 0.7276
145 0.9648 0.5129 0.7255
146 0.9656 0.5127 0.7233
147 0.9663 0.5124 0.7212
148 0.9671 0.5121 0.7191
149 0.9678 0.5119 0.7170
150 0.9686 0.5117 0.7149
151 0.9693 0.5114 0.7127
152 0.9700 0.5112 0.7106
153 0.9707 0.5110 0.7085
154 0.9713 0.5108 0.7064
155 0.9720 0.5106 0.7042
156 0.9726 0.5104 0.7021
157 0.9733 0.5102 0.7000
158 0.9739 0.5100 0.6979
159 0.9745 0.5099 0.6957
160 0.9751 0.5097 0.6936
161 0.9757 0.5096 0.6915
162 0.9762 0.5094 0.6893
163 0.9768 0.5093 0.6872
164 0.9773 0.5092 0.6850
165 0.9778 0.5090 0.6829
166 0.9784 0.5089 0.6808
167 0.9789 0.5088 0.6786
168 0.9794 0.5087 0.6765
169 0.9798 0.5086 0.6744
170 0.9803 0.5086 0.6722
171 0.9807 0.5085 0.6701
172 0.9812 0.5084 0.6679
173 0.9816 0.5084 0.6658
174 0.9820 0.5083 0.6636
175 0.9824 0.5083 0.6615
176 0.9828 0.5083 0.6594
177 0.9832 0.5083 0.6572
178 0.9835 0.5083 0.6551
179 0.9839 0.5082 0.6529
180 0.9842 0.5083 0.6508
181 0.9845 0.5083 0.6487
182 0.9848 0.5083 0.6465
183 0.9851 0.5083 0.6444
184 0.9854 0.5084 0.6423
185 0.9857 0.5084 0.6401
186 0.9859 0.5085 0.6380
187 0.9862 0.5085 0.6358
188 0.9864 0.5086 0.6337
189 0.9866 0.5087 0.6316
190 0.9868 0.5088 0.6295
191 0.9870 0.5089 0.6273
192 0.9872 0.5090 0.6252
193 0.9874 0.5091 0.6231
194 0.9875 0.5092 0.6209
195 0.9877 0.5093 0.6188
196 0.9878 0.5095 0.6167
197 0.9879 0.5096 0.6146
198 0.9880 0.5097 0.6124
199 0.9881 0.5099 0.6103
200 0.9882 0.5101 0.6082
201 0.9882 0.5103 0.6061
202 0.9883 0.5104 0.6040
203 0.9883 0.5106 0.6019
204 0.9884 0.5108 0.5997
205 0.9884 0.5110 0.5976
206 0.9884 0.5112 0.5955
207 0.9884 0.5115 0.5934
208 0.9883 0.5117 0.5913
209 0.9883 0.5119 0.5892
210 0.9883 0.5122 0.5871
211 0.9882 0.5124 0.5850
212 0.9881 0.5127 0.5829
213 0.9880 0.5130 0.5808
214 0.9879 0.5132 0.5788
215 0.9878 0.5135 0.5767
216 0.9877 0.5138 0.5746
217 0.9876 0.5141 0.5725
218 0.9874 0.5144 0.5704
219 0.9873 0.5147 0.5684
220 0.9871 0.5151 0.5663
221 0.9869 0.5154 0.5642
222 0.9867 0.5157 0.5622
223 0.9865 0.5161 0.5601
224 0.9863 0.5164 0.5580
225 0.9861 0.5168 0.5560
226 0.9858 0.5171 0.5539
227 0.9856 0.5175 0.5519
228 0.9853 0.5179 0.5498
229 0.9850 0.5183 0.5478
230 0.9848 0.5187 0.5458
231 0.9845 0.5191 0.5437
232 0.9841 0.5195 0.5417
233 0.9838 0.5199 0.5397
234 0.9835 0.5203 0.5376
235 0.9831 0.5207 0.5356
236 0.9828 0.5211 0.5336
237 0.9824 0.5216 0.5316
238 0.9820 0.5220 0.5296
239 0.9816 0.5225 0.5276
240 0.9812 0.5229 0.5256
241 0.9808 0.5234 0.5236
242 0.9804 0.5239 0.5216
243 0.9799 0.5243 0.5196
244 0.9795 0.5248 0.5176
245 0.9790 0.5253 0.5156
246 0.9785 0.5258 0.5137
247 0.9780 0.5263 0.5117
248 0.9775 0.5268 0.5097
249 0.9770 0.5273 0.5078
250 0.9765 0.5278 0.5058
251 0.9760 0.5284 0.5039
252 0.9754 0.5289 0.5019
253 0.9749 0.5294 0.5000
254 0.9743 0.5300 0.4980
255 0.9737 0.5305 0.4961
