# gbpCode colour map
#    type      = linear
#    hue       = 030 degrees
#    radius    = 001 degrees
#    chroma    = 050
#    luminance = 000 to 071
  0 0.2229 0.0000 0.0000
  1 0.2234 0.0000 0.0000
  2 0.2239 0.0000 0.0000
  3 0.2243 0.0000 0.0000
  4 0.2246 0.0000 0.0000
  5 0.2248 0.0000 0.0000
  6 0.2250 0.0000 0.0000
  7 0.2251 0.0000 0.0000
  8 0.2251 0.0000 0.0000
  9 0.2251 0.0000 0.0000
 10 0.2250 0.0000 0.0000
 11 0.2248 0.0000 0.0000
 12 0.2245 0.0000 0.0000
 13 0.2242 0.0000 0.0000
 14 0.2238 0.0000 0.0000
 15 0.2234 0.0000 0.0000
 16 0.2228 0.0000 0.0000
 17 0.2222 0.0000 0.0000
 18 0.2215 0.0000 0.0000
 19 0.2208 0.0000 0.0000
 20 0.2200 0.0000 0.0000
 21 0.2191 0.0000 0.0000
 22 0.2181 0.0000 0.0000
 23 0.2171 0.0009 0.0000
 24 0.2160 0.0081 0.0000
 25 0.2149 0.0154 0.0000
 26 0.2136 0.0227 0.0000
 27 0.2123 0.0301 0.0000
 28 0.2110 0.0375 0.0000
 29 0.2096 0.0448 0.0000
 30 0.2080 0.0516 0.0000
 31 0.2064 0.0580 0.0000
 32 0.2047 0.0641 0.0000
 33 0.2028 0.0699 0.0000
 34 0.2009 0.0755 0.0000
 35 0.1989 0.0810 0.0000
 36 0.1967 0.0862 0.0000
 37 0.1944 0.0914 0.0000
 38 0.1921 0.0964 0.0000
 39 0.1896 0.1013 0.0000
 40 0.1870 0.1060 0.0000
 41 0.1842 0.1107 0.0000
 42 0.1814 0.1153 0.0000
 43 0.1784 0.1199 0.0000
 44 0.1753 0.1243 0.0000
 45 0.1720 0.1287 0.0000
 46 0.1686 0.1331 0.0000
 47 0.1651 0.1373 0.0000
 48 0.1614 0.1416 0.0000
 49 0.1575 0.1457 0.0000
 50 0.1534 0.1498 0.0000
 51 0.1492 0.1539 0.0000
 52 0.1448 0.1579 0.0000
 53 0.1402 0.1619 0.0000
 54 0.1353 0.1659 0.0000
 55 0.1302 0.1698 0.0000
 56 0.1248 0.1737 0.0000
 57 0.1191 0.1775 0.0000
 58 0.1130 0.1814 0.0000
 59 0.1066 0.1851 0.0000
 60 0.0997 0.1889 0.0000
 61 0.0923 0.1926 0.0000
 62 0.0843 0.1963 0.0000
 63 0.0755 0.2000 0.0000
 64 0.0657 0.2036 0.0000
 65 0.0546 0.2073 0.0000
 66 0.0416 0.2109 0.0000
 67 0.0268 0.2144 0.0000
 68 0.0119 0.2180 0.0000
 69 0.0000 0.2215 0.0000
 70 0.0000 0.2250 0.0000
 71 0.0000 0.2285 0.0000
 72 0.0000 0.2320 0.0000
 73 0.0000 0.2354 0.0000
 74 0.0000 0.2388 0.0000
 75 0.0000 0.2423 0.0000
 76 0.0000 0.2456 0.0000
 77 0.0000 0.2490 0.0000
 78 0.0000 0.2524 0.0000
 79 0.0000 0.2557 0.0000
 80 0.0000 0.2590 0.0000
 81 0.0000 0.2623 0.0002
 82 0.0000 0.2656 0.0123
 83 0.0000 0.2688 0.0246
 84 0.0000 0.2720 0.0371
 85 0.0000 0.2753 0.0498
 86 0.0000 0.2785 0.0617
 87 0.0000 0.2817 0.0730
 88 0.0000 0.2849 0.0839
 89 0.0000 0.2880 0.0945
 90 0.0000 0.2912 0.1049
 91 0.0000 0.2943 0.1151
 92 0.0000 0.2974 0.1253
 93 0.0000 0.3006 0.1354
 94 0.0000 0.3037 0.1455
 95 0.0000 0.3068 0.1555
 96 0.0000 0.3098 0.1655
 97 0.0000 0.3129 0.1755
 98 0.0000 0.3159 0.1855
 99 0.0000 0.3190 0.1955
100 0.0000 0.3220 0.2056
101 0.0000 0.3250 0.2156
102 0.0000 0.3280 0.2257
103 0.0000 0.3309 0.2358
104 0.0000 0.3339 0.2459
105 0.0000 0.3368 0.2560
106 0.0000 0.3397 0.2661
107 0.0000 0.3426 0.2763
108 0.0000 0.3455 0.2864
109 0.0000 0.3483 0.2966
110 0.0000 0.3512 0.3068
111 0.0000 0.3540 0.3170
112 0.0000 0.3568 0.3271
113 0.0000 0.3596 0.3373
114 0.0000 0.3623 0.3475
115 0.0000 0.3651 0.3577
116 0.0000 0.3678 0.3678
117 0.0000 0.3704 0.3780
118 0.0000 0.3731 0.3881
119 0.0000 0.3757 0.3982
120 0.0000 0.3783 0.4082
121 0.0000 0.3809 0.4182
122 0.0000 0.3834 0.4282
123 0.0000 0.3859 0.4382
124 0.0000 0.3884 0.4480
125 0.0000 0.3909 0.4579
126 0.0000 0.3933 0.4676
127 0.0000 0.3957 0.4774
128 0.0000 0.3980 0.4870
129 0.0000 0.4003 0.4966
130 0.0000 0.4026 0.5061
131 0.0000 0.4048 0.5155
132 0.0000 0.4070 0.5248
133 0.0000 0.4092 0.5340
134 0.0000 0.4113 0.5432
135 0.0000 0.4134 0.5522
136 0.0000 0.4154 0.5611
137 0.0000 0.4174 0.5699
138 0.0000 0.4193 0.5786
139 0.0000 0.4212 0.5872
140 0.0000 0.4231 0.5957
141 0.0000 0.4249 0.6040
142 0.0000 0.4266 0.6122
143 0.0000 0.4283 0.6203
144 0.0000 0.4300 0.6282
145 0.0000 0.4316 0.6360
146 0.0000 0.4332 0.6437
147 0.0000 0.4347 0.6511
148 0.0000 0.4361 0.6585
149 0.0000 0.4375 0.6656
150 0.0000 0.4389 0.6727
151 0.0000 0.4401 0.6795
152 0.0000 0.4414 0.6862
153 0.0000 0.4425 0.6927
154 0.0000 0.4437 0.6990
155 0.0000 0.4447 0.7052
156 0.0000 0.4457 0.7112
157 0.0000 0.4467 0.7170
158 0.0000 0.4476 0.7226
159 0.0000 0.4484 0.7280
160 0.0000 0.4492 0.7332
161 0.0000 0.4499 0.7383
162 0.0000 0.4505 0.7431
163 0.0000 0.4511 0.7478
164 0.0000 0.4517 0.7523
165 0.0000 0.4522 0.7565
166 0.0000 0.4526 0.7606
167 0.0389 0.4529 0.7645
168 0.1006 0.4533 0.7681
169 0.1407 0.4535 0.7716
170 0.1728 0.4537 0.7749
171 0.2006 0.4539 0.7779
172 0.2256 0.4540 0.7808
173 0.2486 0.4540 0.7834
174 0.2700 0.4540 0.7859
175 0.2903 0.4539 0.7881
176 0.3097 0.4538 0.7902
177 0.3282 0.4537 0.7920
178 0.3461 0.4535 0.7936
179 0.3634 0.4532 0.7951
180 0.3802 0.4529 0.7963
181 0.3966 0.4526 0.7973
182 0.4125 0.4523 0.7982
183 0.4281 0.4519 0.7988
184 0.4433 0.4514 0.7992
185 0.4583 0.4510 0.7995
186 0.4729 0.4505 0.7995
187 0.4873 0.4499 0.7994
188 0.5014 0.4494 0.7990
189 0.5153 0.4488 0.7985
190 0.5289 0.4482 0.7978
191 0.5423 0.4477 0.7969
192 0.5555 0.4471 0.7958
193 0.5685 0.4464 0.7946
194 0.5812 0.4458 0.7931
195 0.5938 0.4452 0.7915
196 0.6062 0.4446 0.7897
197 0.6183 0.4440 0.7878
198 0.6303 0.4434 0.7857
199 0.6421 0.4428 0.7834
200 0.6537 0.4423 0.7809
201 0.6651 0.4418 0.7783
202 0.6763 0.4413 0.7756
203 0.6874 0.4408 0.7727
204 0.6982 0.4404 0.7696
205 0.7089 0.4400 0.7664
206 0.7194 0.4397 0.7631
207 0.7296 0.4394 0.7597
208 0.7398 0.4392 0.7561
209 0.7497 0.4390 0.7523
210 0.7594 0.4389 0.7485
211 0.7690 0.4389 0.7445
212 0.7783 0.4390 0.7404
213 0.7875 0.4391 0.7363
214 0.7965 0.4394 0.7320
215 0.8053 0.4397 0.7276
216 0.8139 0.4401 0.7231
217 0.8223 0.4406 0.7185
218 0.8305 0.4412 0.7138
219 0.8385 0.4420 0.7090
220 0.8464 0.4428 0.7041
221 0.8540 0.4437 0.6992
222 0.8614 0.4448 0.6942
223 0.8687 0.4460 0.6891
224 0.8758 0.4473 0.6840
225 0.8826 0.4488 0.6788
226 0.8893 0.4503 0.6736
227 0.8958 0.4520 0.6683
228 0.9021 0.4539 0.6629
229 0.9082 0.4558 0.6575
230 0.9141 0.4579 0.6521
231 0.9197 0.4602 0.6466
232 0.9252 0.4625 0.6411
233 0.9305 0.4651 0.6356
234 0.9357 0.4677 0.6301
235 0.9406 0.4705 0.6245
236 0.9453 0.4734 0.6190
237 0.9498 0.4765 0.6134
238 0.9541 0.4797 0.6078
239 0.9583 0.4830 0.6022
240 0.9622 0.4864 0.5967
241 0.9659 0.4900 0.5911
242 0.9695 0.4937 0.5856
243 0.9728 0.4976 0.5800
244 0.9760 0.5015 0.5745
245 0.9790 0.5056 0.5691
246 0.9817 0.5098 0.5636
247 0.9843 0.5141 0.5582
248 0.9867 0.5185 0.5528
249 0.9889 0.5230 0.5475
250 0.9910 0.5277 0.5422
251 0.9928 0.5324 0.5370
252 0.9944 0.5372 0.5318
253 0.9959 0.5421 0.5267
254 0.9972 0.5472 0.5217
255 0.9983 0.5523 0.5167
