# gbpCode colour map
#    type      = linear
#    hue       = 060 degrees
#    radius    = -01 degrees
#    chroma    = 050
#    luminance = 000 to 078
  0 0.1920 0.0000 0.0000
  1 0.1953 0.0000 0.0000
  2 0.1985 0.0000 0.0000
  3 0.2016 0.0000 0.0000
  4 0.2046 0.0000 0.0000
  5 0.2075 0.0000 0.0000
  6 0.2107 0.0000 0.0000
  7 0.2139 0.0000 0.0000
  8 0.2173 0.0000 0.0000
  9 0.2208 0.0000 0.0000
 10 0.2243 0.0000 0.0000
 11 0.2280 0.0000 0.0000
 12 0.2318 0.0000 0.0000
 13 0.2356 0.0000 0.0000
 14 0.2395 0.0000 0.0000
 15 0.2435 0.0000 0.0000
 16 0.2475 0.0000 0.0000
 17 0.2515 0.0000 0.0000
 18 0.2556 0.0000 0.0000
 19 0.2597 0.0000 0.0000
 20 0.2639 0.0000 0.0000
 21 0.2680 0.0000 0.0000
 22 0.2722 0.0000 0.0000
 23 0.2763 0.0000 0.0000
 24 0.2805 0.0000 0.0000
 25 0.2847 0.0000 0.0000
 26 0.2888 0.0000 0.0000
 27 0.2929 0.0000 0.0000
 28 0.2969 0.0000 0.0000
 29 0.3009 0.0000 0.0000
 30 0.3048 0.0000 0.0043
 31 0.3087 0.0000 0.0205
 32 0.3125 0.0000 0.0367
 33 0.3162 0.0000 0.0519
 34 0.3198 0.0000 0.0645
 35 0.3234 0.0000 0.0756
 36 0.3269 0.0000 0.0855
 37 0.3303 0.0000 0.0944
 38 0.3336 0.0000 0.1028
 39 0.3368 0.0000 0.1112
 40 0.3398 0.0000 0.1197
 41 0.3426 0.0000 0.1282
 42 0.3453 0.0000 0.1368
 43 0.3478 0.0000 0.1456
 44 0.3502 0.0000 0.1543
 45 0.3523 0.0000 0.1632
 46 0.3543 0.0000 0.1721
 47 0.3561 0.0000 0.1810
 48 0.3577 0.0000 0.1900
 49 0.3592 0.0000 0.1991
 50 0.3604 0.0000 0.2082
 51 0.3615 0.0000 0.2173
 52 0.3623 0.0000 0.2264
 53 0.3630 0.0000 0.2356
 54 0.3635 0.0000 0.2447
 55 0.3638 0.0000 0.2539
 56 0.3638 0.0000 0.2631
 57 0.3637 0.0000 0.2723
 58 0.3634 0.0000 0.2815
 59 0.3628 0.0000 0.2906
 60 0.3620 0.0000 0.2998
 61 0.3611 0.0000 0.3089
 62 0.3599 0.0000 0.3180
 63 0.3585 0.0000 0.3270
 64 0.3568 0.0046 0.3360
 65 0.3550 0.0172 0.3450
 66 0.3529 0.0304 0.3539
 67 0.3506 0.0440 0.3628
 68 0.3481 0.0564 0.3715
 69 0.3453 0.0675 0.3803
 70 0.3423 0.0777 0.3889
 71 0.3390 0.0873 0.3975
 72 0.3355 0.0964 0.4060
 73 0.3318 0.1050 0.4143
 74 0.3278 0.1133 0.4226
 75 0.3235 0.1214 0.4308
 76 0.3189 0.1292 0.4389
 77 0.3141 0.1367 0.4469
 78 0.3090 0.1441 0.4548
 79 0.3037 0.1514 0.4626
 80 0.2980 0.1584 0.4702
 81 0.2920 0.1654 0.4777
 82 0.2857 0.1722 0.4851
 83 0.2790 0.1789 0.4923
 84 0.2720 0.1855 0.4994
 85 0.2646 0.1920 0.5064
 86 0.2569 0.1984 0.5132
 87 0.2487 0.2047 0.5199
 88 0.2400 0.2110 0.5264
 89 0.2308 0.2171 0.5328
 90 0.2211 0.2232 0.5390
 91 0.2108 0.2292 0.5450
 92 0.1998 0.2352 0.5509
 93 0.1880 0.2410 0.5566
 94 0.1752 0.2469 0.5621
 95 0.1613 0.2526 0.5675
 96 0.1459 0.2583 0.5727
 97 0.1287 0.2640 0.5777
 98 0.1089 0.2696 0.5825
 99 0.0850 0.2751 0.5871
100 0.0534 0.2806 0.5916
101 0.0086 0.2860 0.5959
102 0.0000 0.2914 0.5999
103 0.0000 0.2967 0.6038
104 0.0000 0.3020 0.6075
105 0.0000 0.3072 0.6111
106 0.0000 0.3124 0.6144
107 0.0000 0.3176 0.6175
108 0.0000 0.3227 0.6204
109 0.0000 0.3277 0.6232
110 0.0000 0.3327 0.6257
111 0.0000 0.3377 0.6281
112 0.0000 0.3426 0.6302
113 0.0000 0.3475 0.6322
114 0.0000 0.3524 0.6339
115 0.0000 0.3572 0.6355
116 0.0000 0.3619 0.6368
117 0.0000 0.3667 0.6380
118 0.0000 0.3713 0.6390
119 0.0000 0.3760 0.6398
120 0.0000 0.3806 0.6404
121 0.0000 0.3852 0.6408
122 0.0000 0.3897 0.6410
123 0.0000 0.3942 0.6411
124 0.0000 0.3987 0.6409
125 0.0000 0.4032 0.6406
126 0.0000 0.4076 0.6401
127 0.0000 0.4119 0.6394
128 0.0000 0.4163 0.6385
129 0.0000 0.4206 0.6374
130 0.0000 0.4248 0.6362
131 0.0000 0.4291 0.6348
132 0.0000 0.4333 0.6333
133 0.0000 0.4375 0.6315
134 0.0000 0.4416 0.6296
135 0.0000 0.4457 0.6276
136 0.0000 0.4498 0.6254
137 0.0000 0.4539 0.6230
138 0.0000 0.4579 0.6205
139 0.0000 0.4619 0.6178
140 0.0000 0.4659 0.6150
141 0.0000 0.4698 0.6121
142 0.0000 0.4737 0.6090
143 0.0000 0.4776 0.6058
144 0.0000 0.4815 0.6024
145 0.0000 0.4853 0.5989
146 0.0000 0.4891 0.5953
147 0.0000 0.4929 0.5916
148 0.0000 0.4966 0.5878
149 0.0000 0.5003 0.5838
150 0.0000 0.5040 0.5798
151 0.0000 0.5077 0.5756
152 0.0000 0.5113 0.5714
153 0.0000 0.5149 0.5670
154 0.0000 0.5185 0.5626
155 0.0000 0.5220 0.5580
156 0.0000 0.5256 0.5534
157 0.0000 0.5291 0.5487
158 0.0000 0.5325 0.5439
159 0.0000 0.5360 0.5391
160 0.0000 0.5394 0.5342
161 0.0000 0.5427 0.5292
162 0.0000 0.5461 0.5242
163 0.0000 0.5494 0.5191
164 0.0000 0.5527 0.5140
165 0.0000 0.5560 0.5088
166 0.0000 0.5592 0.5036
167 0.0000 0.5624 0.4983
168 0.0000 0.5656 0.4930
169 0.0000 0.5687 0.4877
170 0.0000 0.5718 0.4824
171 0.0000 0.5749 0.4770
172 0.0000 0.5779 0.4717
173 0.0000 0.5809 0.4663
174 0.0000 0.5839 0.4609
175 0.0000 0.5869 0.4555
176 0.0000 0.5898 0.4501
177 0.0000 0.5926 0.4447
178 0.0000 0.5955 0.4394
179 0.0000 0.5983 0.4340
180 0.0000 0.6010 0.4287
181 0.0000 0.6038 0.4234
182 0.0000 0.6065 0.4181
183 0.0000 0.6091 0.4129
184 0.0000 0.6117 0.4077
185 0.0000 0.6143 0.4025
186 0.0530 0.6168 0.3974
187 0.0980 0.6193 0.3924
188 0.1305 0.6218 0.3874
189 0.1574 0.6242 0.3824
190 0.1809 0.6266 0.3776
191 0.2023 0.6289 0.3728
192 0.2220 0.6312 0.3681
193 0.2406 0.6335 0.3634
194 0.2582 0.6357 0.3589
195 0.2750 0.6378 0.3545
196 0.2913 0.6399 0.3501
197 0.3070 0.6420 0.3459
198 0.3223 0.6440 0.3418
199 0.3372 0.6460 0.3377
200 0.3517 0.6479 0.3339
201 0.3660 0.6498 0.3301
202 0.3801 0.6517 0.3265
203 0.3939 0.6534 0.3230
204 0.4076 0.6552 0.3197
205 0.4211 0.6569 0.3165
206 0.4344 0.6585 0.3135
207 0.4476 0.6601 0.3107
208 0.4607 0.6617 0.3080
209 0.4737 0.6632 0.3055
210 0.4865 0.6646 0.3033
211 0.4993 0.6660 0.3012
212 0.5120 0.6674 0.2993
213 0.5246 0.6687 0.2976
214 0.5371 0.6699 0.2962
215 0.5496 0.6711 0.2949
216 0.5620 0.6723 0.2939
217 0.5743 0.6734 0.2931
218 0.5866 0.6744 0.2926
219 0.5988 0.6754 0.2923
220 0.6110 0.6764 0.2923
221 0.6231 0.6773 0.2925
222 0.6352 0.6782 0.2929
223 0.6472 0.6790 0.2937
224 0.6591 0.6798 0.2946
225 0.6710 0.6805 0.2959
226 0.6829 0.6812 0.2974
227 0.6947 0.6818 0.2992
228 0.7064 0.6824 0.3012
229 0.7181 0.6830 0.3035
230 0.7297 0.6835 0.3061
231 0.7413 0.6840 0.3089
232 0.7528 0.6844 0.3120
233 0.7642 0.6848 0.3153
234 0.7756 0.6852 0.3189
235 0.7870 0.6855 0.3228
236 0.7982 0.6858 0.3269
237 0.8094 0.6861 0.3312
238 0.8205 0.6863 0.3358
239 0.8316 0.6865 0.3407
240 0.8426 0.6867 0.3458
241 0.8534 0.6869 0.3511
242 0.8643 0.6870 0.3566
243 0.8750 0.6871 0.3624
244 0.8856 0.6872 0.3684
245 0.8962 0.6873 0.3746
246 0.9067 0.6874 0.3810
247 0.9171 0.6875 0.3876
248 0.9273 0.6876 0.3945
249 0.9375 0.6876 0.4015
250 0.9476 0.6877 0.4088
251 0.9575 0.6878 0.4162
252 0.9674 0.6878 0.4238
253 0.9772 0.6879 0.4316
254 0.9868 0.6880 0.4396
255 0.9963 0.6881 0.4478
