# gbpCode colour map
#    type      = iso
#    hue       = 000 degrees
#    radius    = 000 degrees
#    chroma    = 050
#    luminance = 067 to 067
  0 0.9560 0.4866 0.6507
  1 0.9573 0.4864 0.6443
  2 0.9585 0.4863 0.6379
  3 0.9596 0.4863 0.6315
  4 0.9605 0.4864 0.6251
  5 0.9613 0.4865 0.6188
  6 0.9620 0.4867 0.6124
  7 0.9626 0.4869 0.6061
  8 0.9631 0.4873 0.5997
  9 0.9635 0.4877 0.5934
 10 0.9638 0.4882 0.5871
 11 0.9639 0.4887 0.5808
 12 0.9639 0.4894 0.5745
 13 0.9639 0.4901 0.5682
 14 0.9637 0.4908 0.5620
 15 0.9634 0.4917 0.5558
 16 0.9630 0.4926 0.5496
 17 0.9625 0.4936 0.5434
 18 0.9618 0.4946 0.5372
 19 0.9611 0.4957 0.5311
 20 0.9603 0.4969 0.5250
 21 0.9593 0.4981 0.5190
 22 0.9583 0.4994 0.5130
 23 0.9571 0.5007 0.5070
 24 0.9559 0.5021 0.5010
 25 0.9545 0.5036 0.4951
 26 0.9530 0.5051 0.4892
 27 0.9515 0.5067 0.4834
 28 0.9498 0.5083 0.4776
 29 0.9481 0.5100 0.4719
 30 0.9462 0.5117 0.4662
 31 0.9442 0.5135 0.4605
 32 0.9422 0.5153 0.4549
 33 0.9400 0.5171 0.4493
 34 0.9378 0.5190 0.4438
 35 0.9354 0.5210 0.4384
 36 0.9330 0.5229 0.4330
 37 0.9305 0.5249 0.4276
 38 0.9279 0.5270 0.4223
 39 0.9251 0.5291 0.4171
 40 0.9223 0.5312 0.4119
 41 0.9195 0.5333 0.4068
 42 0.9165 0.5355 0.4018
 43 0.9134 0.5377 0.3968
 44 0.9103 0.5399 0.3919
 45 0.9070 0.5421 0.3870
 46 0.9037 0.5444 0.3822
 47 0.9003 0.5466 0.3775
 48 0.8968 0.5489 0.3729
 49 0.8933 0.5513 0.3683
 50 0.8896 0.5536 0.3638
 51 0.8859 0.5559 0.3594
 52 0.8821 0.5583 0.3551
 53 0.8783 0.5607 0.3508
 54 0.8743 0.5630 0.3466
 55 0.8703 0.5654 0.3425
 56 0.8662 0.5678 0.3385
 57 0.8620 0.5702 0.3346
 58 0.8578 0.5726 0.3308
 59 0.8535 0.5750 0.3271
 60 0.8491 0.5774 0.3234
 61 0.8446 0.5798 0.3199
 62 0.8401 0.5822 0.3165
 63 0.8355 0.5846 0.3131
 64 0.8309 0.5870 0.3099
 65 0.8262 0.5894 0.3068
 66 0.8214 0.5918 0.3037
 67 0.8166 0.5942 0.3008
 68 0.8117 0.5966 0.2980
 69 0.8067 0.5990 0.2954
 70 0.8017 0.6014 0.2928
 71 0.7966 0.6037 0.2904
 72 0.7915 0.6061 0.2880
 73 0.7863 0.6084 0.2858
 74 0.7810 0.6107 0.2838
 75 0.7757 0.6130 0.2818
 76 0.7704 0.6153 0.2800
 77 0.7650 0.6176 0.2784
 78 0.7595 0.6199 0.2768
 79 0.7540 0.6221 0.2754
 80 0.7484 0.6244 0.2742
 81 0.7428 0.6266 0.2731
 82 0.7371 0.6288 0.2721
 83 0.7314 0.6310 0.2713
 84 0.7256 0.6332 0.2706
 85 0.7198 0.6353 0.2701
 86 0.7140 0.6374 0.2697
 87 0.7081 0.6396 0.2695
 88 0.7021 0.6416 0.2694
 89 0.6961 0.6437 0.2695
 90 0.6901 0.6458 0.2697
 91 0.6840 0.6478 0.2701
 92 0.6779 0.6498 0.2706
 93 0.6717 0.6518 0.2713
 94 0.6655 0.6538 0.2722
 95 0.6593 0.6557 0.2731
 96 0.6530 0.6576 0.2743
 97 0.6466 0.6595 0.2756
 98 0.6402 0.6614 0.2770
 99 0.6338 0.6632 0.2786
100 0.6274 0.6651 0.2803
101 0.6209 0.6669 0.2822
102 0.6143 0.6686 0.2842
103 0.6077 0.6704 0.2864
104 0.6011 0.6721 0.2886
105 0.5944 0.6738 0.2911
106 0.5877 0.6755 0.2936
107 0.5809 0.6772 0.2963
108 0.5741 0.6788 0.2992
109 0.5673 0.6804 0.3021
110 0.5604 0.6820 0.3052
111 0.5535 0.6835 0.3084
112 0.5465 0.6851 0.3117
113 0.5395 0.6866 0.3152
114 0.5324 0.6881 0.3187
115 0.5253 0.6895 0.3224
116 0.5181 0.6910 0.3262
117 0.5109 0.6924 0.3301
118 0.5036 0.6937 0.3340
119 0.4963 0.6951 0.3381
120 0.4889 0.6964 0.3423
121 0.4815 0.6977 0.3466
122 0.4739 0.6990 0.3510
123 0.4664 0.7003 0.3555
124 0.4587 0.7015 0.3601
125 0.4510 0.7027 0.3647
126 0.4432 0.7039 0.3695
127 0.4354 0.7050 0.3743
128 0.4275 0.7062 0.3793
129 0.4194 0.7073 0.3843
130 0.4113 0.7083 0.3893
131 0.4031 0.7094 0.3945
132 0.3948 0.7104 0.3997
133 0.3864 0.7114 0.4050
134 0.3779 0.7124 0.4104
135 0.3692 0.7134 0.4158
136 0.3604 0.7143 0.4213
137 0.3515 0.7152 0.4269
138 0.3424 0.7161 0.4325
139 0.3332 0.7169 0.4382
140 0.3238 0.7178 0.4439
141 0.3142 0.7186 0.4497
142 0.3043 0.7194 0.4556
143 0.2943 0.7201 0.4615
144 0.2839 0.7209 0.4674
145 0.2733 0.7216 0.4734
146 0.2624 0.7223 0.4795
147 0.2511 0.7230 0.4856
148 0.2393 0.7236 0.4917
149 0.2271 0.7242 0.4979
150 0.2143 0.7248 0.5041
151 0.2008 0.7254 0.5104
152 0.1865 0.7260 0.5167
153 0.1712 0.7265 0.5230
154 0.1546 0.7270 0.5293
155 0.1363 0.7275 0.5357
156 0.1155 0.7279 0.5421
157 0.0910 0.7284 0.5486
158 0.0593 0.7288 0.5550
159 0.0136 0.7292 0.5615
160 0.0000 0.7296 0.5680
161 0.0000 0.7299 0.5746
162 0.0000 0.7302 0.5811
163 0.0000 0.7305 0.5876
164 0.0000 0.7308 0.5942
165 0.0000 0.7311 0.6008
166 0.0000 0.7313 0.6074
167 0.0000 0.7315 0.6140
168 0.0000 0.7317 0.6206
169 0.0000 0.7319 0.6272
170 0.0000 0.7320 0.6338
171 0.0000 0.7321 0.6403
172 0.0000 0.7322 0.6469
173 0.0000 0.7323 0.6535
174 0.0000 0.7323 0.6601
175 0.0000 0.7324 0.6667
176 0.0000 0.7324 0.6732
177 0.0000 0.7324 0.6798
178 0.0000 0.7323 0.6863
179 0.0000 0.7322 0.6928
180 0.0000 0.7322 0.6993
181 0.0000 0.7320 0.7058
182 0.0000 0.7319 0.7123
183 0.0000 0.7318 0.7187
184 0.0000 0.7316 0.7251
185 0.0000 0.7314 0.7314
186 0.0000 0.7311 0.7378
187 0.0000 0.7309 0.7441
188 0.0000 0.7306 0.7503
189 0.0000 0.7303 0.7566
190 0.0000 0.7300 0.7628
191 0.0000 0.7297 0.7689
192 0.0000 0.7293 0.7750
193 0.0000 0.7289 0.7811
194 0.0000 0.7285 0.7871
195 0.0000 0.7280 0.7930
196 0.0000 0.7276 0.7989
197 0.0000 0.7271 0.8048
198 0.0000 0.7265 0.8106
199 0.0000 0.7260 0.8163
200 0.0000 0.7254 0.8220
201 0.0000 0.7248 0.8276
202 0.0000 0.7242 0.8332
203 0.0000 0.7236 0.8387
204 0.0000 0.7229 0.8441
205 0.0000 0.7222 0.8494
206 0.0000 0.7215 0.8547
207 0.0000 0.7207 0.8599
208 0.0000 0.7200 0.8651
209 0.0000 0.7192 0.8701
210 0.0000 0.7183 0.8751
211 0.0000 0.7175 0.8800
212 0.0000 0.7166 0.8848
213 0.0000 0.7157 0.8896
214 0.0000 0.7148 0.8942
215 0.0000 0.7138 0.8988
216 0.0000 0.7128 0.9032
217 0.0000 0.7118 0.9076
218 0.0000 0.7108 0.9119
219 0.0000 0.7097 0.9161
220 0.0000 0.7086 0.9202
221 0.0000 0.7075 0.9242
222 0.0000 0.7063 0.9281
223 0.0000 0.7051 0.9320
224 0.0000 0.7039 0.9357
225 0.0000 0.7027 0.9393
226 0.0000 0.7014 0.9428
227 0.0000 0.7001 0.9462
228 0.0000 0.6988 0.9495
229 0.0000 0.6975 0.9527
230 0.0000 0.6961 0.9558
231 0.0000 0.6947 0.9588
232 0.0000 0.6933 0.9616
233 0.0017 0.6918 0.9644
234 0.0638 0.6903 0.9670
235 0.1038 0.6888 0.9696
236 0.1339 0.6872 0.9720
237 0.1592 0.6857 0.9743
238 0.1815 0.6841 0.9765
239 0.2017 0.6824 0.9785
240 0.2203 0.6808 0.9805
241 0.2378 0.6791 0.9823
242 0.2544 0.6774 0.9841
243 0.2702 0.6756 0.9857
244 0.2853 0.6739 0.9872
245 0.2998 0.6721 0.9885
246 0.3139 0.6702 0.9898
247 0.3276 0.6684 0.9909
248 0.3409 0.6665 0.9919
249 0.3538 0.6646 0.9928
250 0.3665 0.6627 0.9935
251 0.3789 0.6607 0.9942
252 0.3910 0.6587 0.9947
253 0.4029 0.6567 0.9951
254 0.4145 0.6547 0.9953
255 0.4260 0.6526 0.9955
