# gbpCode colour map
#    type      = iso
#    hue       = 090 degrees
#    radius    = 000 degrees
#    chroma    = 050
#    luminance = 067 to 067
  0 0.7198 0.6353 0.2701
  1 0.7140 0.6374 0.2697
  2 0.7081 0.6396 0.2695
  3 0.7021 0.6416 0.2694
  4 0.6961 0.6437 0.2695
  5 0.6901 0.6458 0.2697
  6 0.6840 0.6478 0.2701
  7 0.6779 0.6498 0.2706
  8 0.6717 0.6518 0.2713
  9 0.6655 0.6538 0.2722
 10 0.6593 0.6557 0.2731
 11 0.6530 0.6576 0.2743
 12 0.6466 0.6595 0.2756
 13 0.6402 0.6614 0.2770
 14 0.6338 0.6632 0.2786
 15 0.6274 0.6651 0.2803
 16 0.6209 0.6669 0.2822
 17 0.6143 0.6686 0.2842
 18 0.6077 0.6704 0.2864
 19 0.6011 0.6721 0.2886
 20 0.5944 0.6738 0.2911
 21 0.5877 0.6755 0.2936
 22 0.5809 0.6772 0.2963
 23 0.5741 0.6788 0.2992
 24 0.5673 0.6804 0.3021
 25 0.5604 0.6820 0.3052
 26 0.5535 0.6835 0.3084
 27 0.5465 0.6851 0.3117
 28 0.5395 0.6866 0.3152
 29 0.5324 0.6881 0.3187
 30 0.5253 0.6895 0.3224
 31 0.5181 0.6910 0.3262
 32 0.5109 0.6924 0.3301
 33 0.5036 0.6937 0.3340
 34 0.4963 0.6951 0.3381
 35 0.4889 0.6964 0.3423
 36 0.4815 0.6977 0.3466
 37 0.4739 0.6990 0.3510
 38 0.4664 0.7003 0.3555
 39 0.4587 0.7015 0.3601
 40 0.4510 0.7027 0.3647
 41 0.4432 0.7039 0.3695
 42 0.4354 0.7050 0.3743
 43 0.4275 0.7062 0.3793
 44 0.4194 0.7073 0.3843
 45 0.4113 0.7083 0.3893
 46 0.4031 0.7094 0.3945
 47 0.3948 0.7104 0.3997
 48 0.3864 0.7114 0.4050
 49 0.3779 0.7124 0.4104
 50 0.3692 0.7134 0.4158
 51 0.3604 0.7143 0.4213
 52 0.3515 0.7152 0.4269
 53 0.3424 0.7161 0.4325
 54 0.3332 0.7169 0.4382
 55 0.3238 0.7178 0.4439
 56 0.3142 0.7186 0.4497
 57 0.3043 0.7194 0.4556
 58 0.2943 0.7201 0.4615
 59 0.2839 0.7209 0.4674
 60 0.2733 0.7216 0.4734
 61 0.2624 0.7223 0.4795
 62 0.2511 0.7230 0.4856
 63 0.2393 0.7236 0.4917
 64 0.2271 0.7242 0.4979
 65 0.2143 0.7248 0.5041
 66 0.2008 0.7254 0.5104
 67 0.1865 0.7260 0.5167
 68 0.1712 0.7265 0.5230
 69 0.1546 0.7270 0.5293
 70 0.1363 0.7275 0.5357
 71 0.1155 0.7279 0.5421
 72 0.0910 0.7284 0.5486
 73 0.0593 0.7288 0.5550
 74 0.0136 0.7292 0.5615
 75 0.0000 0.7296 0.5680
 76 0.0000 0.7299 0.5746
 77 0.0000 0.7302 0.5811
 78 0.0000 0.7305 0.5876
 79 0.0000 0.7308 0.5942
 80 0.0000 0.7311 0.6008
 81 0.0000 0.7313 0.6074
 82 0.0000 0.7315 0.6140
 83 0.0000 0.7317 0.6206
 84 0.0000 0.7319 0.6272
 85 0.0000 0.7320 0.6338
 86 0.0000 0.7321 0.6403
 87 0.0000 0.7322 0.6469
 88 0.0000 0.7323 0.6535
 89 0.0000 0.7323 0.6601
 90 0.0000 0.7324 0.6667
 91 0.0000 0.7324 0.6732
 92 0.0000 0.7324 0.6798
 93 0.0000 0.7323 0.6863
 94 0.0000 0.7322 0.6928
 95 0.0000 0.7322 0.6993
 96 0.0000 0.7320 0.7058
 97 0.0000 0.7319 0.7123
 98 0.0000 0.7318 0.7187
 99 0.0000 0.7316 0.7251
100 0.0000 0.7314 0.7314
101 0.0000 0.7311 0.7378
102 0.0000 0.7309 0.7441
103 0.0000 0.7306 0.7503
104 0.0000 0.7303 0.7566
105 0.0000 0.7300 0.7628
106 0.0000 0.7297 0.7689
107 0.0000 0.7293 0.7750
108 0.0000 0.7289 0.7811
109 0.0000 0.7285 0.7871
110 0.0000 0.7280 0.7930
111 0.0000 0.7276 0.7989
112 0.0000 0.7271 0.8048
113 0.0000 0.7265 0.8106
114 0.0000 0.7260 0.8163
115 0.0000 0.7254 0.8220
116 0.0000 0.7248 0.8276
117 0.0000 0.7242 0.8332
118 0.0000 0.7236 0.8387
119 0.0000 0.7229 0.8441
120 0.0000 0.7222 0.8494
121 0.0000 0.7215 0.8547
122 0.0000 0.7207 0.8599
123 0.0000 0.7200 0.8651
124 0.0000 0.7192 0.8701
125 0.0000 0.7183 0.8751
126 0.0000 0.7175 0.8800
127 0.0000 0.7166 0.8848
128 0.0000 0.7157 0.8896
129 0.0000 0.7148 0.8942
130 0.0000 0.7138 0.8988
131 0.0000 0.7128 0.9032
132 0.0000 0.7118 0.9076
133 0.0000 0.7108 0.9119
134 0.0000 0.7097 0.9161
135 0.0000 0.7086 0.9202
136 0.0000 0.7075 0.9242
137 0.0000 0.7063 0.9281
138 0.0000 0.7051 0.9320
139 0.0000 0.7039 0.9357
140 0.0000 0.7027 0.9393
141 0.0000 0.7014 0.9428
142 0.0000 0.7001 0.9462
143 0.0000 0.6988 0.9495
144 0.0000 0.6975 0.9527
145 0.0000 0.6961 0.9558
146 0.0000 0.6947 0.9588
147 0.0000 0.6933 0.9616
148 0.0017 0.6918 0.9644
149 0.0638 0.6903 0.9670
150 0.1038 0.6888 0.9696
151 0.1339 0.6872 0.9720
152 0.1592 0.6857 0.9743
153 0.1815 0.6841 0.9765
154 0.2017 0.6824 0.9785
155 0.2203 0.6808 0.9805
156 0.2378 0.6791 0.9823
157 0.2544 0.6774 0.9841
158 0.2702 0.6756 0.9857
159 0.2853 0.6739 0.9872
160 0.2998 0.6721 0.9885
161 0.3139 0.6702 0.9898
162 0.3276 0.6684 0.9909
163 0.3409 0.6665 0.9919
164 0.3538 0.6646 0.9928
165 0.3665 0.6627 0.9935
166 0.3789 0.6607 0.9942
167 0.3910 0.6587 0.9947
168 0.4029 0.6567 0.9951
169 0.4145 0.6547 0.9953
170 0.4260 0.6526 0.9955
171 0.4373 0.6506 0.9955
172 0.4484 0.6485 0.9954
173 0.4593 0.6463 0.9952
174 0.4701 0.6442 0.9949
175 0.4807 0.6420 0.9944
176 0.4912 0.6398 0.9938
177 0.5015 0.6376 0.9931
178 0.5117 0.6354 0.9923
179 0.5217 0.6331 0.9913
180 0.5316 0.6308 0.9903
181 0.5414 0.6285 0.9891
182 0.5511 0.6262 0.9878
183 0.5607 0.6239 0.9863
184 0.5701 0.6215 0.9848
185 0.5794 0.6192 0.9831
186 0.5886 0.6168 0.9814
187 0.5977 0.6144 0.9795
188 0.6067 0.6120 0.9775
189 0.6156 0.6096 0.9753
190 0.6243 0.6071 0.9731
191 0.6330 0.6047 0.9707
192 0.6415 0.6022 0.9683
193 0.6500 0.5997 0.9657
194 0.6583 0.5973 0.9630
195 0.6665 0.5948 0.9602
196 0.6746 0.5923 0.9573
197 0.6826 0.5898 0.9543
198 0.6905 0.5873 0.9512
199 0.6983 0.5848 0.9480
200 0.7060 0.5823 0.9447
201 0.7136 0.5798 0.9412
202 0.7211 0.5773 0.9377
203 0.7284 0.5748 0.9341
204 0.7357 0.5723 0.9304
205 0.7428 0.5698 0.9265
206 0.7499 0.5674 0.9226
207 0.7568 0.5649 0.9186
208 0.7636 0.5624 0.9145
209 0.7704 0.5600 0.9103
210 0.7770 0.5575 0.9060
211 0.7835 0.5551 0.9017
212 0.7899 0.5527 0.8972
213 0.7961 0.5503 0.8927
214 0.8023 0.5479 0.8881
215 0.8084 0.5455 0.8834
216 0.8143 0.5432 0.8786
217 0.8202 0.5409 0.8737
218 0.8259 0.5386 0.8688
219 0.8315 0.5363 0.8638
220 0.8370 0.5341 0.8587
221 0.8424 0.5319 0.8536
222 0.8476 0.5297 0.8484
223 0.8528 0.5276 0.8431
224 0.8578 0.5255 0.8377
225 0.8628 0.5234 0.8323
226 0.8676 0.5214 0.8269
227 0.8723 0.5194 0.8213
228 0.8768 0.5175 0.8158
229 0.8813 0.5156 0.8101
230 0.8856 0.5137 0.8044
231 0.8899 0.5119 0.7987
232 0.8940 0.5102 0.7929
233 0.8980 0.5084 0.7870
234 0.9019 0.5068 0.7812
235 0.9056 0.5052 0.7752
236 0.9093 0.5037 0.7693
237 0.9128 0.5022 0.7633
238 0.9162 0.5007 0.7572
239 0.9195 0.4994 0.7511
240 0.9226 0.4981 0.7450
241 0.9257 0.4968 0.7389
242 0.9286 0.4956 0.7327
243 0.9315 0.4945 0.7265
244 0.9341 0.4935 0.7203
245 0.9367 0.4925 0.7140
246 0.9392 0.4916 0.7077
247 0.9415 0.4908 0.7015
248 0.9438 0.4900 0.6951
249 0.9459 0.4893 0.6888
250 0.9479 0.4887 0.6825
251 0.9497 0.4881 0.6761
252 0.9515 0.4876 0.6698
253 0.9531 0.4872 0.6634
254 0.9546 0.4869 0.6570
255 0.9560 0.4866 0.6507
