# gbpCode colour map
#    type      = iso
#    hue       = 330 degrees
#    radius    = 000 degrees
#    chroma    = 050
#    luminance = 069 to 069
  0 0.8941 0.5417 0.8458
  1 0.8972 0.5404 0.8421
  2 0.9003 0.5391 0.8384
  3 0.9033 0.5378 0.8346
  4 0.9062 0.5366 0.8308
  5 0.9091 0.5354 0.8270
  6 0.9120 0.5342 0.8231
  7 0.9148 0.5330 0.8192
  8 0.9176 0.5318 0.8153
  9 0.9203 0.5307 0.8114
 10 0.9229 0.5296 0.8075
 11 0.9255 0.5285 0.8035
 12 0.9280 0.5275 0.7996
 13 0.9305 0.5264 0.7956
 14 0.9330 0.5254 0.7916
 15 0.9354 0.5244 0.7876
 16 0.9377 0.5235 0.7835
 17 0.9400 0.5225 0.7795
 18 0.9422 0.5216 0.7754
 19 0.9444 0.5207 0.7713
 20 0.9465 0.5199 0.7672
 21 0.9486 0.5191 0.7631
 22 0.9506 0.5183 0.7589
 23 0.9525 0.5175 0.7548
 24 0.9545 0.5167 0.7506
 25 0.9563 0.5160 0.7465
 26 0.9581 0.5154 0.7423
 27 0.9599 0.5147 0.7381
 28 0.9616 0.5141 0.7339
 29 0.9632 0.5135 0.7297
 30 0.9648 0.5129 0.7255
 31 0.9663 0.5124 0.7212
 32 0.9678 0.5119 0.7170
 33 0.9693 0.5114 0.7127
 34 0.9707 0.5110 0.7085
 35 0.9720 0.5106 0.7042
 36 0.9733 0.5102 0.7000
 37 0.9745 0.5099 0.6957
 38 0.9757 0.5096 0.6915
 39 0.9768 0.5093 0.6872
 40 0.9778 0.5090 0.6829
 41 0.9789 0.5088 0.6786
 42 0.9798 0.5086 0.6744
 43 0.9807 0.5085 0.6701
 44 0.9816 0.5084 0.6658
 45 0.9824 0.5083 0.6615
 46 0.9832 0.5083 0.6572
 47 0.9839 0.5082 0.6529
 48 0.9845 0.5083 0.6487
 49 0.9851 0.5083 0.6444
 50 0.9857 0.5084 0.6401
 51 0.9862 0.5085 0.6358
 52 0.9866 0.5087 0.6316
 53 0.9870 0.5089 0.6273
 54 0.9874 0.5091 0.6231
 55 0.9877 0.5093 0.6188
 56 0.9879 0.5096 0.6146
 57 0.9881 0.5099 0.6103
 58 0.9882 0.5103 0.6061
 59 0.9883 0.5106 0.6019
 60 0.9884 0.5110 0.5976
 61 0.9884 0.5115 0.5934
 62 0.9883 0.5119 0.5892
 63 0.9882 0.5124 0.5850
 64 0.9880 0.5130 0.5808
 65 0.9878 0.5135 0.5767
 66 0.9876 0.5141 0.5725
 67 0.9873 0.5147 0.5684
 68 0.9869 0.5154 0.5642
 69 0.9865 0.5161 0.5601
 70 0.9861 0.5168 0.5560
 71 0.9856 0.5175 0.5519
 72 0.9850 0.5183 0.5478
 73 0.9845 0.5191 0.5437
 74 0.9838 0.5199 0.5397
 75 0.9831 0.5207 0.5356
 76 0.9824 0.5216 0.5316
 77 0.9816 0.5225 0.5276
 78 0.9808 0.5234 0.5236
 79 0.9799 0.5243 0.5196
 80 0.9790 0.5253 0.5156
 81 0.9780 0.5263 0.5117
 82 0.9770 0.5273 0.5078
 83 0.9760 0.5284 0.5039
 84 0.9749 0.5294 0.5000
 85 0.9737 0.5305 0.4961
 86 0.9725 0.5316 0.4923
 87 0.9713 0.5327 0.4884
 88 0.9700 0.5339 0.4846
 89 0.9687 0.5351 0.4808
 90 0.9673 0.5363 0.4771
 91 0.9659 0.5375 0.4733
 92 0.9645 0.5387 0.4696
 93 0.9630 0.5399 0.4659
 94 0.9615 0.5412 0.4623
 95 0.9599 0.5425 0.4586
 96 0.9583 0.5438 0.4550
 97 0.9566 0.5451 0.4514
 98 0.9549 0.5464 0.4478
 99 0.9531 0.5478 0.4443
100 0.9514 0.5492 0.4407
101 0.9495 0.5505 0.4372
102 0.9477 0.5519 0.4338
103 0.9458 0.5533 0.4303
104 0.9438 0.5547 0.4269
105 0.9418 0.5562 0.4235
106 0.9398 0.5576 0.4202
107 0.9377 0.5591 0.4169
108 0.9356 0.5605 0.4136
109 0.9335 0.5620 0.4103
110 0.9313 0.5635 0.4071
111 0.9291 0.5650 0.4039
112 0.9268 0.5665 0.4007
113 0.9246 0.5680 0.3976
114 0.9222 0.5695 0.3944
115 0.9199 0.5711 0.3914
116 0.9175 0.5726 0.3883
117 0.9150 0.5742 0.3853
118 0.9126 0.5757 0.3824
119 0.9101 0.5773 0.3794
120 0.9075 0.5788 0.3765
121 0.9049 0.5804 0.3737
122 0.9023 0.5820 0.3708
123 0.8997 0.5836 0.3681
124 0.8970 0.5851 0.3653
125 0.8943 0.5867 0.3626
126 0.8916 0.5883 0.3599
127 0.8888 0.5899 0.3573
128 0.8860 0.5915 0.3547
129 0.8831 0.5931 0.3521
130 0.8803 0.5947 0.3496
131 0.8774 0.5963 0.3472
132 0.8744 0.5979 0.3447
133 0.8715 0.5995 0.3424
134 0.8685 0.6011 0.3400
135 0.8654 0.6027 0.3377
136 0.8624 0.6043 0.3355
137 0.8593 0.6059 0.3333
138 0.8562 0.6075 0.3311
139 0.8530 0.6091 0.3290
140 0.8499 0.6107 0.3270
141 0.8467 0.6123 0.3250
142 0.8434 0.6139 0.3230
143 0.8402 0.6155 0.3211
144 0.8369 0.6171 0.3192
145 0.8336 0.6187 0.3174
146 0.8302 0.6203 0.3157
147 0.8269 0.6219 0.3140
148 0.8235 0.6234 0.3123
149 0.8201 0.6250 0.3107
150 0.8166 0.6266 0.3092
151 0.8131 0.6282 0.3077
152 0.8096 0.6297 0.3063
153 0.8061 0.6313 0.3049
154 0.8026 0.6328 0.3036
155 0.7990 0.6344 0.3023
156 0.7954 0.6359 0.3011
157 0.7918 0.6374 0.3000
158 0.7882 0.6390 0.2989
159 0.7845 0.6405 0.2979
160 0.7808 0.6420 0.2969
161 0.7771 0.6435 0.2960
162 0.7733 0.6450 0.2952
163 0.7696 0.6465 0.2944
164 0.7658 0.6480 0.2937
165 0.7620 0.6495 0.2931
166 0.7582 0.6509 0.2925
167 0.7543 0.6524 0.2920
168 0.7505 0.6539 0.2915
169 0.7466 0.6553 0.2911
170 0.7427 0.6567 0.2908
171 0.7387 0.6582 0.2905
172 0.7348 0.6596 0.2903
173 0.7308 0.6610 0.2902
174 0.7268 0.6624 0.2902
175 0.7228 0.6638 0.2902
176 0.7188 0.6652 0.2902
177 0.7147 0.6666 0.2904
178 0.7107 0.6680 0.2906
179 0.7066 0.6693 0.2909
180 0.7024 0.6707 0.2912
181 0.6983 0.6720 0.2916
182 0.6942 0.6733 0.2921
183 0.6900 0.6747 0.2926
184 0.6858 0.6760 0.2932
185 0.6816 0.6773 0.2939
186 0.6774 0.6786 0.2947
187 0.6731 0.6799 0.2955
188 0.6689 0.6811 0.2963
189 0.6646 0.6824 0.2973
190 0.6603 0.6836 0.2983
191 0.6560 0.6849 0.2993
192 0.6517 0.6861 0.3005
193 0.6473 0.6873 0.3016
194 0.6429 0.6886 0.3029
195 0.6385 0.6898 0.3042
196 0.6341 0.6909 0.3056
197 0.6297 0.6921 0.3070
198 0.6253 0.6933 0.3086
199 0.6208 0.6944 0.3101
200 0.6163 0.6956 0.3117
201 0.6118 0.6967 0.3134
202 0.6073 0.6978 0.3152
203 0.6028 0.6990 0.3170
204 0.5982 0.7001 0.3188
205 0.5936 0.7012 0.3207
206 0.5891 0.7022 0.3227
207 0.5844 0.7033 0.3247
208 0.5798 0.7044 0.3268
209 0.5752 0.7054 0.3290
210 0.5705 0.7064 0.3311
211 0.5658 0.7075 0.3334
212 0.5611 0.7085 0.3357
213 0.5564 0.7095 0.3380
214 0.5516 0.7105 0.3404
215 0.5469 0.7115 0.3429
216 0.5421 0.7124 0.3454
217 0.5373 0.7134 0.3479
218 0.5324 0.7143 0.3505
219 0.5276 0.7153 0.3532
220 0.5227 0.7162 0.3559
221 0.5178 0.7171 0.3586
222 0.5129 0.7180 0.3614
223 0.5079 0.7189 0.3642
224 0.5029 0.7198 0.3671
225 0.4979 0.7206 0.3700
226 0.4929 0.7215 0.3729
227 0.4879 0.7223 0.3759
228 0.4828 0.7232 0.3790
229 0.4777 0.7240 0.3820
230 0.4726 0.7248 0.3852
231 0.4674 0.7256 0.3883
232 0.4622 0.7264 0.3915
233 0.4570 0.7272 0.3947
234 0.4517 0.7279 0.3980
235 0.4464 0.7287 0.4013
236 0.4411 0.7294 0.4047
237 0.4357 0.7302 0.4080
238 0.4303 0.7309 0.4114
239 0.4249 0.7316 0.4149
240 0.4194 0.7323 0.4184
241 0.4139 0.7330 0.4219
242 0.4084 0.7337 0.4254
243 0.4028 0.7343 0.4290
244 0.3971 0.7350 0.4326
245 0.3914 0.7356 0.4363
246 0.3857 0.7363 0.4399
247 0.3799 0.7369 0.4436
248 0.3740 0.7375 0.4473
249 0.3681 0.7381 0.4511
250 0.3621 0.7387 0.4549
251 0.3561 0.7393 0.4587
252 0.3500 0.7398 0.4625
253 0.3438 0.7404 0.4664
254 0.3375 0.7409 0.4703
255 0.3312 0.7415 0.4742
