# gbpCode colour map
#    type      = linear
#    hue       = 000 degrees
#    radius    = 001 degrees
#    chroma    = 050
#    luminance = 000 to 070
  0 0.2229 0.0000 0.0121
  1 0.2255 0.0000 0.0042
  2 0.2281 0.0000 0.0000
  3 0.2305 0.0000 0.0000
  4 0.2330 0.0000 0.0000
  5 0.2353 0.0000 0.0000
  6 0.2376 0.0000 0.0000
  7 0.2398 0.0000 0.0000
  8 0.2420 0.0000 0.0000
  9 0.2440 0.0000 0.0000
 10 0.2460 0.0000 0.0000
 11 0.2480 0.0000 0.0000
 12 0.2498 0.0000 0.0000
 13 0.2516 0.0000 0.0000
 14 0.2532 0.0000 0.0000
 15 0.2549 0.0000 0.0000
 16 0.2564 0.0000 0.0000
 17 0.2578 0.0000 0.0000
 18 0.2592 0.0000 0.0000
 19 0.2605 0.0000 0.0000
 20 0.2616 0.0000 0.0000
 21 0.2628 0.0000 0.0000
 22 0.2638 0.0000 0.0000
 23 0.2647 0.0000 0.0000
 24 0.2656 0.0000 0.0000
 25 0.2664 0.0000 0.0000
 26 0.2671 0.0000 0.0000
 27 0.2677 0.0000 0.0000
 28 0.2682 0.0000 0.0000
 29 0.2686 0.0000 0.0000
 30 0.2690 0.0000 0.0000
 31 0.2692 0.0000 0.0000
 32 0.2694 0.0000 0.0000
 33 0.2694 0.0000 0.0000
 34 0.2693 0.0000 0.0000
 35 0.2691 0.0000 0.0000
 36 0.2688 0.0000 0.0000
 37 0.2684 0.0000 0.0000
 38 0.2679 0.0000 0.0000
 39 0.2673 0.0075 0.0000
 40 0.2666 0.0159 0.0000
 41 0.2658 0.0246 0.0000
 42 0.2649 0.0336 0.0000
 43 0.2638 0.0428 0.0000
 44 0.2627 0.0514 0.0000
 45 0.2615 0.0593 0.0000
 46 0.2601 0.0668 0.0000
 47 0.2587 0.0738 0.0000
 48 0.2571 0.0805 0.0000
 49 0.2555 0.0870 0.0000
 50 0.2537 0.0932 0.0000
 51 0.2519 0.0992 0.0000
 52 0.2499 0.1050 0.0000
 53 0.2478 0.1107 0.0000
 54 0.2456 0.1162 0.0000
 55 0.2433 0.1216 0.0000
 56 0.2409 0.1269 0.0000
 57 0.2384 0.1321 0.0000
 58 0.2358 0.1372 0.0000
 59 0.2331 0.1422 0.0000
 60 0.2302 0.1471 0.0000
 61 0.2273 0.1519 0.0000
 62 0.2242 0.1567 0.0000
 63 0.2210 0.1614 0.0000
 64 0.2176 0.1661 0.0000
 65 0.2142 0.1707 0.0000
 66 0.2106 0.1752 0.0000
 67 0.2069 0.1797 0.0000
 68 0.2030 0.1841 0.0000
 69 0.1990 0.1885 0.0000
 70 0.1948 0.1928 0.0000
 71 0.1905 0.1971 0.0000
 72 0.1860 0.2013 0.0000
 73 0.1814 0.2055 0.0000
 74 0.1765 0.2097 0.0000
 75 0.1715 0.2138 0.0000
 76 0.1662 0.2179 0.0000
 77 0.1607 0.2219 0.0000
 78 0.1550 0.2260 0.0000
 79 0.1490 0.2299 0.0000
 80 0.1427 0.2339 0.0000
 81 0.1361 0.2378 0.0000
 82 0.1291 0.2417 0.0000
 83 0.1217 0.2456 0.0000
 84 0.1138 0.2494 0.0000
 85 0.1053 0.2532 0.0000
 86 0.0962 0.2570 0.0000
 87 0.0862 0.2607 0.0000
 88 0.0750 0.2644 0.0000
 89 0.0624 0.2681 0.0000
 90 0.0475 0.2718 0.0000
 91 0.0296 0.2754 0.0000
 92 0.0113 0.2791 0.0000
 93 0.0000 0.2827 0.0000
 94 0.0000 0.2862 0.0000
 95 0.0000 0.2898 0.0000
 96 0.0000 0.2933 0.0000
 97 0.0000 0.2968 0.0000
 98 0.0000 0.3003 0.0007
 99 0.0000 0.3037 0.0117
100 0.0000 0.3072 0.0238
101 0.0000 0.3106 0.0370
102 0.0000 0.3140 0.0506
103 0.0000 0.3174 0.0631
104 0.0000 0.3207 0.0748
105 0.0000 0.3241 0.0861
106 0.0000 0.3274 0.0970
107 0.0000 0.3307 0.1077
108 0.0000 0.3340 0.1182
109 0.0000 0.3373 0.1286
110 0.0000 0.3405 0.1389
111 0.0000 0.3438 0.1491
112 0.0000 0.3470 0.1593
113 0.0000 0.3502 0.1694
114 0.0000 0.3534 0.1795
115 0.0000 0.3565 0.1897
116 0.0000 0.3597 0.1998
117 0.0000 0.3628 0.2100
118 0.0000 0.3659 0.2202
119 0.0000 0.3690 0.2304
120 0.0000 0.3721 0.2406
121 0.0000 0.3752 0.2508
122 0.0000 0.3782 0.2611
123 0.0000 0.3812 0.2714
124 0.0000 0.3842 0.2817
125 0.0000 0.3872 0.2920
126 0.0000 0.3902 0.3023
127 0.0000 0.3931 0.3127
128 0.0000 0.3960 0.3231
129 0.0000 0.3989 0.3335
130 0.0000 0.4018 0.3439
131 0.0000 0.4046 0.3543
132 0.0000 0.4075 0.3647
133 0.0000 0.4103 0.3751
134 0.0000 0.4130 0.3856
135 0.0000 0.4158 0.3960
136 0.0000 0.4185 0.4064
137 0.0000 0.4212 0.4167
138 0.0000 0.4238 0.4271
139 0.0000 0.4265 0.4374
140 0.0000 0.4291 0.4477
141 0.0000 0.4317 0.4580
142 0.0000 0.4342 0.4682
143 0.0000 0.4367 0.4784
144 0.0000 0.4392 0.4885
145 0.0000 0.4417 0.4986
146 0.0000 0.4441 0.5086
147 0.0000 0.4465 0.5186
148 0.0000 0.4488 0.5285
149 0.0000 0.4511 0.5383
150 0.0000 0.4534 0.5481
151 0.0000 0.4556 0.5578
152 0.0000 0.4578 0.5674
153 0.0000 0.4599 0.5768
154 0.0000 0.4620 0.5862
155 0.0000 0.4641 0.5956
156 0.0000 0.4661 0.6047
157 0.0000 0.4681 0.6138
158 0.0000 0.4700 0.6228
159 0.0000 0.4719 0.6317
160 0.0000 0.4738 0.6404
161 0.0000 0.4756 0.6490
162 0.0000 0.4773 0.6575
163 0.0000 0.4790 0.6658
164 0.0000 0.4807 0.6740
165 0.0000 0.4823 0.6821
166 0.0000 0.4838 0.6900
167 0.0000 0.4853 0.6978
168 0.0000 0.4867 0.7054
169 0.0000 0.4881 0.7129
170 0.0000 0.4895 0.7202
171 0.0000 0.4908 0.7273
172 0.0000 0.4920 0.7342
173 0.0000 0.4932 0.7410
174 0.0000 0.4943 0.7477
175 0.0000 0.4953 0.7541
176 0.0000 0.4963 0.7604
177 0.0000 0.4973 0.7664
178 0.0000 0.4982 0.7723
179 0.0000 0.4990 0.7780
180 0.0000 0.4998 0.7835
181 0.0000 0.5005 0.7889
182 0.0000 0.5012 0.7940
183 0.0000 0.5018 0.7989
184 0.0000 0.5023 0.8037
185 0.0000 0.5028 0.8082
186 0.0680 0.5033 0.8125
187 0.1202 0.5037 0.8167
188 0.1579 0.5040 0.8206
189 0.1892 0.5043 0.8243
190 0.2167 0.5045 0.8278
191 0.2416 0.5047 0.8312
192 0.2647 0.5048 0.8343
193 0.2864 0.5048 0.8372
194 0.3070 0.5049 0.8399
195 0.3267 0.5048 0.8424
196 0.3456 0.5048 0.8446
197 0.3638 0.5046 0.8467
198 0.3815 0.5045 0.8486
199 0.3987 0.5043 0.8502
200 0.4155 0.5040 0.8517
201 0.4319 0.5037 0.8530
202 0.4479 0.5034 0.8540
203 0.4636 0.5030 0.8548
204 0.4790 0.5026 0.8555
205 0.4941 0.5022 0.8559
206 0.5090 0.5017 0.8562
207 0.5236 0.5013 0.8562
208 0.5379 0.5008 0.8561
209 0.5520 0.5002 0.8557
210 0.5659 0.4997 0.8552
211 0.5796 0.4991 0.8544
212 0.5931 0.4986 0.8535
213 0.6064 0.4980 0.8524
214 0.6194 0.4974 0.8511
215 0.6323 0.4968 0.8497
216 0.6450 0.4963 0.8480
217 0.6575 0.4957 0.8462
218 0.6698 0.4951 0.8442
219 0.6819 0.4946 0.8420
220 0.6939 0.4941 0.8397
221 0.7056 0.4936 0.8372
222 0.7172 0.4931 0.8346
223 0.7286 0.4926 0.8318
224 0.7398 0.4922 0.8288
225 0.7508 0.4919 0.8257
226 0.7616 0.4915 0.8224
227 0.7722 0.4912 0.8191
228 0.7827 0.4910 0.8155
229 0.7930 0.4909 0.8118
230 0.8031 0.4907 0.8080
231 0.8129 0.4907 0.8041
232 0.8227 0.4907 0.8001
233 0.8322 0.4908 0.7959
234 0.8415 0.4910 0.7916
235 0.8506 0.4913 0.7872
236 0.8596 0.4917 0.7827
237 0.8684 0.4921 0.7781
238 0.8769 0.4926 0.7734
239 0.8853 0.4933 0.7686
240 0.8935 0.4940 0.7638
241 0.9014 0.4949 0.7588
242 0.9092 0.4959 0.7538
243 0.9168 0.4969 0.7487
244 0.9242 0.4981 0.7435
245 0.9314 0.4995 0.7382
246 0.9384 0.5009 0.7329
247 0.9452 0.5024 0.7275
248 0.9518 0.5041 0.7221
249 0.9582 0.5059 0.7166
250 0.9644 0.5079 0.7111
251 0.9704 0.5100 0.7056
252 0.9762 0.5122 0.7000
253 0.9818 0.5145 0.6943
254 0.9872 0.5170 0.6887
255 0.9924 0.5196 0.6830
