# gbpCode colour map
#    type      = linear
#    hue       = 270 degrees
#    radius    = 001 degrees
#    chroma    = 050
#    luminance = 000 to 079
  0 0.0000 0.0208 0.2885
  1 0.0000 0.0198 0.2913
  2 0.0000 0.0187 0.2936
  3 0.0000 0.0176 0.2956
  4 0.0000 0.0164 0.2973
  5 0.0000 0.0152 0.2985
  6 0.0000 0.0140 0.2994
  7 0.0000 0.0128 0.2999
  8 0.0000 0.0116 0.3000
  9 0.0000 0.0104 0.2998
 10 0.0000 0.0093 0.2992
 11 0.0000 0.0081 0.2982
 12 0.0000 0.0067 0.2969
 13 0.0000 0.0047 0.2953
 14 0.0268 0.0023 0.2933
 15 0.0576 0.0000 0.2910
 16 0.0816 0.0000 0.2884
 17 0.1017 0.0000 0.2855
 18 0.1195 0.0000 0.2823
 19 0.1357 0.0000 0.2788
 20 0.1507 0.0000 0.2750
 21 0.1648 0.0000 0.2710
 22 0.1781 0.0000 0.2667
 23 0.1907 0.0000 0.2621
 24 0.2027 0.0000 0.2574
 25 0.2142 0.0000 0.2524
 26 0.2252 0.0000 0.2472
 27 0.2357 0.0000 0.2418
 28 0.2458 0.0000 0.2363
 29 0.2554 0.0000 0.2305
 30 0.2646 0.0000 0.2246
 31 0.2734 0.0000 0.2186
 32 0.2818 0.0000 0.2124
 33 0.2898 0.0000 0.2061
 34 0.2975 0.0000 0.1997
 35 0.3048 0.0000 0.1932
 36 0.3117 0.0000 0.1866
 37 0.3183 0.0000 0.1800
 38 0.3246 0.0000 0.1732
 39 0.3304 0.0000 0.1665
 40 0.3360 0.0000 0.1597
 41 0.3412 0.0000 0.1529
 42 0.3461 0.0000 0.1460
 43 0.3507 0.0000 0.1391
 44 0.3549 0.0000 0.1323
 45 0.3588 0.0000 0.1254
 46 0.3624 0.0000 0.1185
 47 0.3657 0.0000 0.1116
 48 0.3686 0.0000 0.1047
 49 0.3713 0.0000 0.0978
 50 0.3736 0.0000 0.0909
 51 0.3757 0.0000 0.0836
 52 0.3775 0.0000 0.0757
 53 0.3790 0.0000 0.0673
 54 0.3802 0.0000 0.0580
 55 0.3812 0.0000 0.0478
 56 0.3819 0.0000 0.0361
 57 0.3823 0.0000 0.0242
 58 0.3825 0.0000 0.0125
 59 0.3824 0.0000 0.0010
 60 0.3820 0.0000 0.0000
 61 0.3814 0.0154 0.0000
 62 0.3805 0.0320 0.0000
 63 0.3794 0.0487 0.0000
 64 0.3780 0.0633 0.0000
 65 0.3764 0.0762 0.0000
 66 0.3745 0.0881 0.0000
 67 0.3724 0.0991 0.0000
 68 0.3700 0.1094 0.0000
 69 0.3674 0.1193 0.0000
 70 0.3645 0.1287 0.0000
 71 0.3614 0.1378 0.0000
 72 0.3581 0.1465 0.0000
 73 0.3545 0.1550 0.0000
 74 0.3507 0.1632 0.0000
 75 0.3467 0.1713 0.0000
 76 0.3424 0.1790 0.0000
 77 0.3379 0.1867 0.0000
 78 0.3332 0.1941 0.0000
 79 0.3283 0.2014 0.0000
 80 0.3231 0.2085 0.0000
 81 0.3177 0.2154 0.0000
 82 0.3121 0.2223 0.0000
 83 0.3062 0.2290 0.0000
 84 0.3001 0.2355 0.0000
 85 0.2938 0.2420 0.0000
 86 0.2872 0.2483 0.0000
 87 0.2804 0.2546 0.0000
 88 0.2733 0.2607 0.0000
 89 0.2660 0.2667 0.0000
 90 0.2583 0.2726 0.0000
 91 0.2504 0.2784 0.0000
 92 0.2422 0.2841 0.0000
 93 0.2337 0.2898 0.0000
 94 0.2248 0.2953 0.0000
 95 0.2155 0.3007 0.0000
 96 0.2058 0.3061 0.0000
 97 0.1957 0.3114 0.0000
 98 0.1850 0.3166 0.0000
 99 0.1737 0.3217 0.0000
100 0.1617 0.3267 0.0000
101 0.1490 0.3317 0.0000
102 0.1351 0.3366 0.0000
103 0.1198 0.3414 0.0000
104 0.1025 0.3462 0.0000
105 0.0820 0.3509 0.0153
106 0.0562 0.3555 0.0344
107 0.0204 0.3601 0.0543
108 0.0000 0.3646 0.0720
109 0.0000 0.3690 0.0884
110 0.0000 0.3734 0.1040
111 0.0000 0.3777 0.1191
112 0.0000 0.3820 0.1339
113 0.0000 0.3862 0.1485
114 0.0000 0.3904 0.1630
115 0.0000 0.3945 0.1775
116 0.0000 0.3985 0.1919
117 0.0000 0.4025 0.2064
118 0.0000 0.4065 0.2208
119 0.0000 0.4104 0.2353
120 0.0000 0.4142 0.2499
121 0.0000 0.4180 0.2645
122 0.0000 0.4217 0.2792
123 0.0000 0.4254 0.2940
124 0.0000 0.4291 0.3088
125 0.0000 0.4326 0.3236
126 0.0000 0.4361 0.3385
127 0.0000 0.4396 0.3534
128 0.0000 0.4430 0.3684
129 0.0000 0.4464 0.3833
130 0.0000 0.4496 0.3983
131 0.0000 0.4529 0.4132
132 0.0000 0.4560 0.4281
133 0.0000 0.4591 0.4430
134 0.0000 0.4621 0.4579
135 0.0000 0.4651 0.4726
136 0.0000 0.4680 0.4873
137 0.0000 0.4708 0.5019
138 0.0000 0.4735 0.5164
139 0.0000 0.4762 0.5307
140 0.0000 0.4788 0.5450
141 0.0000 0.4813 0.5590
142 0.0000 0.4837 0.5729
143 0.0000 0.4860 0.5866
144 0.0000 0.4882 0.6001
145 0.0000 0.4904 0.6133
146 0.0000 0.4924 0.6264
147 0.0000 0.4944 0.6392
148 0.0000 0.4962 0.6517
149 0.0000 0.4980 0.6639
150 0.0000 0.4996 0.6758
151 0.0000 0.5012 0.6875
152 0.0000 0.5026 0.6988
153 0.0000 0.5039 0.7098
154 0.0000 0.5051 0.7204
155 0.0000 0.5062 0.7307
156 0.0000 0.5071 0.7406
157 0.0000 0.5080 0.7501
158 0.0000 0.5087 0.7592
159 0.0000 0.5093 0.7679
160 0.0000 0.5098 0.7763
161 0.0000 0.5101 0.7842
162 0.0000 0.5103 0.7916
163 0.0000 0.5104 0.7987
164 0.0000 0.5104 0.8053
165 0.0000 0.5103 0.8114
166 0.0369 0.5100 0.8171
167 0.1231 0.5096 0.8223
168 0.1749 0.5091 0.8271
169 0.2160 0.5084 0.8314
170 0.2516 0.5077 0.8353
171 0.2836 0.5068 0.8387
172 0.3131 0.5058 0.8416
173 0.3408 0.5047 0.8440
174 0.3671 0.5035 0.8460
175 0.3922 0.5022 0.8475
176 0.4163 0.5008 0.8486
177 0.4395 0.4994 0.8492
178 0.4620 0.4978 0.8493
179 0.4838 0.4962 0.8490
180 0.5050 0.4945 0.8482
181 0.5256 0.4927 0.8470
182 0.5457 0.4909 0.8453
183 0.5653 0.4890 0.8433
184 0.5844 0.4871 0.8408
185 0.6031 0.4852 0.8379
186 0.6213 0.4833 0.8345
187 0.6390 0.4814 0.8308
188 0.6563 0.4795 0.8267
189 0.6732 0.4776 0.8223
190 0.6897 0.4758 0.8174
191 0.7057 0.4740 0.8122
192 0.7213 0.4723 0.8067
193 0.7364 0.4707 0.8008
194 0.7512 0.4692 0.7947
195 0.7655 0.4678 0.7882
196 0.7794 0.4665 0.7814
197 0.7928 0.4654 0.7744
198 0.8059 0.4644 0.7671
199 0.8184 0.4636 0.7595
200 0.8306 0.4630 0.7518
201 0.8423 0.4626 0.7437
202 0.8536 0.4624 0.7355
203 0.8644 0.4625 0.7271
204 0.8748 0.4628 0.7186
205 0.8847 0.4634 0.7098
206 0.8942 0.4642 0.7010
207 0.9033 0.4653 0.6920
208 0.9119 0.4667 0.6829
209 0.9200 0.4684 0.6736
210 0.9277 0.4703 0.6643
211 0.9349 0.4726 0.6550
212 0.9417 0.4752 0.6455
213 0.9481 0.4781 0.6361
214 0.9540 0.4813 0.6266
215 0.9594 0.4848 0.6171
216 0.9644 0.4885 0.6076
217 0.9690 0.4926 0.5981
218 0.9731 0.4970 0.5887
219 0.9768 0.5016 0.5793
220 0.9800 0.5066 0.5700
221 0.9828 0.5117 0.5607
222 0.9852 0.5172 0.5516
223 0.9872 0.5229 0.5425
224 0.9887 0.5288 0.5336
225 0.9898 0.5349 0.5248
226 0.9905 0.5413 0.5161
227 0.9908 0.5478 0.5076
228 0.9907 0.5545 0.4992
229 0.9902 0.5614 0.4911
230 0.9893 0.5685 0.4831
231 0.9880 0.5757 0.4754
232 0.9864 0.5831 0.4679
233 0.9843 0.5905 0.4606
234 0.9819 0.5981 0.4536
235 0.9791 0.6058 0.4468
236 0.9760 0.6136 0.4404
237 0.9725 0.6214 0.4342
238 0.9687 0.6293 0.4284
239 0.9646 0.6373 0.4229
240 0.9601 0.6453 0.4178
241 0.9553 0.6534 0.4130
242 0.9502 0.6615 0.4086
243 0.9447 0.6696 0.4047
244 0.9390 0.6777 0.4011
245 0.9330 0.6858 0.3980
246 0.9267 0.6939 0.3954
247 0.9201 0.7021 0.3933
248 0.9133 0.7102 0.3916
249 0.9061 0.7182 0.3904
250 0.8988 0.7263 0.3898
251 0.8912 0.7343 0.3897
252 0.8833 0.7422 0.3901
253 0.8752 0.7502 0.3912
254 0.8669 0.7580 0.3927
255 0.8583 0.7659 0.3949
