# gbpCode colour map
#    type      = linear
#    hue       = 090 degrees
#    radius    = -01 degrees
#    chroma    = 050
#    luminance = 000 to 090
  0 0.1177 0.0000 0.0000
  1 0.1250 0.0000 0.0000
  2 0.1318 0.0000 0.0000
  3 0.1382 0.0000 0.0000
  4 0.1443 0.0000 0.0000
  5 0.1501 0.0000 0.0000
  6 0.1557 0.0000 0.0000
  7 0.1610 0.0000 0.0000
  8 0.1661 0.0000 0.0000
  9 0.1709 0.0002 0.0000
 10 0.1756 0.0016 0.0000
 11 0.1801 0.0030 0.0000
 12 0.1845 0.0045 0.0000
 13 0.1887 0.0060 0.0000
 14 0.1931 0.0071 0.0000
 15 0.1977 0.0078 0.0000
 16 0.2025 0.0081 0.0000
 17 0.2074 0.0079 0.0000
 18 0.2126 0.0074 0.0000
 19 0.2179 0.0064 0.0000
 20 0.2233 0.0050 0.0000
 21 0.2289 0.0031 0.0000
 22 0.2346 0.0009 0.0000
 23 0.2404 0.0000 0.0000
 24 0.2462 0.0000 0.0000
 25 0.2521 0.0000 0.0000
 26 0.2580 0.0000 0.0000
 27 0.2640 0.0000 0.0000
 28 0.2700 0.0000 0.0000
 29 0.2759 0.0000 0.0000
 30 0.2819 0.0000 0.0000
 31 0.2879 0.0000 0.0000
 32 0.2939 0.0000 0.0000
 33 0.2999 0.0000 0.0000
 34 0.3058 0.0000 0.0000
 35 0.3118 0.0000 0.0000
 36 0.3177 0.0000 0.0000
 37 0.3236 0.0000 0.0000
 38 0.3294 0.0000 0.0000
 39 0.3352 0.0000 0.0000
 40 0.3410 0.0000 0.0000
 41 0.3467 0.0000 0.0000
 42 0.3524 0.0000 0.0000
 43 0.3580 0.0000 0.0012
 44 0.3636 0.0000 0.0170
 45 0.3691 0.0000 0.0328
 46 0.3745 0.0000 0.0482
 47 0.3798 0.0000 0.0612
 48 0.3851 0.0000 0.0725
 49 0.3903 0.0000 0.0826
 50 0.3955 0.0000 0.0918
 51 0.4005 0.0000 0.1007
 52 0.4053 0.0000 0.1097
 53 0.4101 0.0000 0.1188
 54 0.4146 0.0000 0.1280
 55 0.4191 0.0000 0.1373
 56 0.4233 0.0000 0.1466
 57 0.4274 0.0000 0.1560
 58 0.4314 0.0000 0.1655
 59 0.4351 0.0000 0.1751
 60 0.4387 0.0000 0.1847
 61 0.4422 0.0000 0.1944
 62 0.4455 0.0000 0.2042
 63 0.4485 0.0000 0.2140
 64 0.4514 0.0000 0.2239
 65 0.4542 0.0000 0.2339
 66 0.4567 0.0000 0.2439
 67 0.4591 0.0000 0.2539
 68 0.4612 0.0000 0.2640
 69 0.4632 0.0000 0.2741
 70 0.4650 0.0000 0.2843
 71 0.4666 0.0000 0.2944
 72 0.4679 0.0063 0.3046
 73 0.4691 0.0181 0.3148
 74 0.4701 0.0307 0.3251
 75 0.4709 0.0439 0.3353
 76 0.4715 0.0562 0.3455
 77 0.4718 0.0674 0.3557
 78 0.4720 0.0779 0.3659
 79 0.4719 0.0878 0.3761
 80 0.4717 0.0973 0.3863
 81 0.4712 0.1064 0.3964
 82 0.4705 0.1153 0.4066
 83 0.4696 0.1240 0.4166
 84 0.4684 0.1325 0.4267
 85 0.4671 0.1408 0.4366
 86 0.4655 0.1489 0.4466
 87 0.4637 0.1570 0.4564
 88 0.4617 0.1649 0.4662
 89 0.4594 0.1727 0.4759
 90 0.4570 0.1804 0.4856
 91 0.4542 0.1881 0.4952
 92 0.4513 0.1957 0.5047
 93 0.4481 0.2032 0.5141
 94 0.4447 0.2106 0.5234
 95 0.4411 0.2180 0.5326
 96 0.4372 0.2253 0.5417
 97 0.4331 0.2325 0.5506
 98 0.4287 0.2397 0.5595
 99 0.4241 0.2469 0.5683
100 0.4192 0.2540 0.5769
101 0.4141 0.2611 0.5854
102 0.4087 0.2681 0.5938
103 0.4031 0.2750 0.6020
104 0.3972 0.2820 0.6101
105 0.3910 0.2888 0.6180
106 0.3846 0.2957 0.6258
107 0.3779 0.3025 0.6335
108 0.3708 0.3092 0.6409
109 0.3635 0.3159 0.6483
110 0.3559 0.3226 0.6554
111 0.3479 0.3292 0.6624
112 0.3396 0.3358 0.6693
113 0.3310 0.3424 0.6759
114 0.3220 0.3489 0.6824
115 0.3126 0.3553 0.6887
116 0.3027 0.3618 0.6948
117 0.2924 0.3682 0.7007
118 0.2817 0.3745 0.7065
119 0.2704 0.3808 0.7121
120 0.2584 0.3871 0.7174
121 0.2459 0.3934 0.7226
122 0.2325 0.3996 0.7276
123 0.2183 0.4057 0.7324
124 0.2030 0.4118 0.7370
125 0.1865 0.4179 0.7414
126 0.1682 0.4240 0.7456
127 0.1478 0.4300 0.7496
128 0.1243 0.4359 0.7534
129 0.0957 0.4419 0.7569
130 0.0569 0.4478 0.7603
131 0.0000 0.4536 0.7635
132 0.0000 0.4594 0.7665
133 0.0000 0.4652 0.7693
134 0.0000 0.4710 0.7719
135 0.0000 0.4767 0.7742
136 0.0000 0.4824 0.7764
137 0.0000 0.4880 0.7784
138 0.0000 0.4936 0.7801
139 0.0000 0.4991 0.7817
140 0.0000 0.5047 0.7830
141 0.0000 0.5102 0.7842
142 0.0000 0.5156 0.7852
143 0.0000 0.5210 0.7859
144 0.0000 0.5264 0.7865
145 0.0000 0.5318 0.7869
146 0.0000 0.5371 0.7871
147 0.0000 0.5423 0.7870
148 0.0000 0.5476 0.7868
149 0.0000 0.5528 0.7865
150 0.0000 0.5580 0.7859
151 0.0000 0.5631 0.7851
152 0.0000 0.5682 0.7842
153 0.0000 0.5733 0.7831
154 0.0000 0.5783 0.7818
155 0.0000 0.5833 0.7804
156 0.0000 0.5883 0.7788
157 0.0000 0.5932 0.7770
158 0.0000 0.5981 0.7750
159 0.0000 0.6030 0.7729
160 0.0000 0.6078 0.7706
161 0.0000 0.6126 0.7682
162 0.0000 0.6174 0.7656
163 0.0000 0.6221 0.7629
164 0.0000 0.6268 0.7601
165 0.0000 0.6315 0.7571
166 0.0000 0.6361 0.7540
167 0.0000 0.6407 0.7507
168 0.0000 0.6453 0.7473
169 0.0000 0.6498 0.7438
170 0.0000 0.6543 0.7402
171 0.0000 0.6588 0.7364
172 0.0000 0.6632 0.7326
173 0.0000 0.6676 0.7286
174 0.0000 0.6720 0.7246
175 0.0000 0.6763 0.7204
176 0.0000 0.6806 0.7162
177 0.0000 0.6849 0.7118
178 0.0000 0.6891 0.7074
179 0.0000 0.6933 0.7029
180 0.0000 0.6975 0.6983
181 0.0000 0.7016 0.6937
182 0.0000 0.7057 0.6890
183 0.0000 0.7097 0.6842
184 0.0000 0.7138 0.6794
185 0.0000 0.7178 0.6745
186 0.0000 0.7217 0.6696
187 0.0000 0.7256 0.6646
188 0.0000 0.7295 0.6596
189 0.0000 0.7333 0.6545
190 0.0000 0.7371 0.6495
191 0.0000 0.7409 0.6444
192 0.0000 0.7446 0.6393
193 0.0000 0.7483 0.6342
194 0.0000 0.7520 0.6291
195 0.0000 0.7556 0.6239
196 0.0000 0.7592 0.6188
197 0.0016 0.7627 0.6137
198 0.0762 0.7662 0.6086
199 0.1209 0.7696 0.6035
200 0.1548 0.7731 0.5985
201 0.1833 0.7764 0.5934
202 0.2086 0.7798 0.5884
203 0.2316 0.7830 0.5835
204 0.2531 0.7863 0.5786
205 0.2733 0.7895 0.5737
206 0.2926 0.7926 0.5689
207 0.3111 0.7957 0.5641
208 0.3289 0.7988 0.5594
209 0.3462 0.8018 0.5548
210 0.3631 0.8048 0.5503
211 0.3795 0.8077 0.5458
212 0.3956 0.8106 0.5414
213 0.4115 0.8134 0.5372
214 0.4270 0.8162 0.5330
215 0.4424 0.8190 0.5289
216 0.4576 0.8217 0.5249
217 0.4726 0.8243 0.5211
218 0.4874 0.8269 0.5174
219 0.5021 0.8295 0.5138
220 0.5166 0.8320 0.5103
221 0.5311 0.8344 0.5070
222 0.5455 0.8368 0.5038
223 0.5597 0.8392 0.5007
224 0.5739 0.8415 0.4978
225 0.5880 0.8437 0.4951
226 0.6020 0.8459 0.4926
227 0.6160 0.8481 0.4902
228 0.6299 0.8502 0.4880
229 0.6438 0.8522 0.4859
230 0.6576 0.8542 0.4841
231 0.6713 0.8562 0.4825
232 0.6850 0.8581 0.4810
233 0.6987 0.8600 0.4798
234 0.7123 0.8618 0.4788
235 0.7259 0.8635 0.4779
236 0.7394 0.8652 0.4773
237 0.7529 0.8669 0.4770
238 0.7664 0.8685 0.4768
239 0.7798 0.8701 0.4769
240 0.7932 0.8716 0.4772
241 0.8065 0.8731 0.4778
242 0.8198 0.8745 0.4786
243 0.8330 0.8759 0.4796
244 0.8463 0.8772 0.4809
245 0.8594 0.8785 0.4824
246 0.8725 0.8798 0.4842
247 0.8856 0.8810 0.4862
248 0.8986 0.8822 0.4885
249 0.9116 0.8833 0.4910
250 0.9245 0.8844 0.4938
251 0.9374 0.8855 0.4969
252 0.9502 0.8865 0.5002
253 0.9630 0.8875 0.5037
254 0.9757 0.8884 0.5075
255 0.9883 0.8894 0.5116
